 Be Density=1.848, Angle=90.deg
 Photon Energy (eV), Atten Length (microns)
   30.0000  0.117143
   30.3506  0.122079
   30.7053  0.127222
   31.0641  0.132581
   31.4271  0.138167
   31.7944  0.143988
   32.1659  0.150054
   32.5418  0.156376
   32.9221  0.162965
   33.3068  0.169831
   33.6960  0.176986
   34.0898  0.183656
   34.4882  0.189792
   34.8912  0.195231
   35.2990  0.200825
   35.7115  0.206580
   36.1288  0.212500
   36.5510  0.218590
   36.9781  0.224853
   37.4103  0.231297
   37.8474  0.237926
   38.2897  0.244744
   38.7372  0.251757
   39.1899  0.256988
   39.6478  0.260253
   40.1112  0.265328
   40.5799  0.269494
   41.0541  0.274148
   41.5339  0.280534
   42.0192  0.285814
   42.5103  0.291945
   43.0071  0.296797
   43.5096  0.303157
   44.0181  0.308312
   44.5325  0.315008
   45.0529  0.321600
   45.5794  0.328967
   46.1120  0.336382
   46.6509  0.342864
   47.1961  0.349346
   47.7476  0.355749
   48.3056  0.361010
   48.8701  0.363835
   49.4412  0.371038
   50.0190  0.375316
   50.6035  0.376846
   51.1948  0.378383
   51.7931  0.379925
   52.3983  0.382690
   53.0107  0.387006
   53.6302  0.392728
   54.2569  0.400155
   54.8909  0.405100
   55.5324  0.412563
   56.1814  0.420613
   56.8379  0.430886
   57.5021  0.439874
   58.1741  0.448106
   58.8539  0.457778
   59.5417  0.466175
   60.2375  0.472984
   60.9414  0.479833
   61.6536  0.486746
   62.3741  0.491122
   63.1030  0.497992
   63.8404  0.502264
   64.5864  0.508145
   65.3412  0.512455
   66.1048  0.519397
   66.8773  0.524501
   67.6588  0.530642
   68.4495  0.537369
   69.2494  0.544564
   70.0586  0.555208
   70.8773  0.562735
   71.7056  0.569224
   72.5436  0.575791
   73.3913  0.582721
   74.2490  0.588992
   75.1166  0.594980
   75.9944  0.599874
   76.8825  0.604213
   77.7810  0.608411
   78.6899  0.612256
   79.6095  0.616442
   80.5398  0.619875
   81.4810  0.623507
   82.4332  0.628082
   83.3965  0.632984
   84.3711  0.639627
   85.3571  0.646652
   86.3545  0.653763
   87.3637  0.661854
   88.3846  0.670229
   89.4175  0.678826
   90.4624  0.687606
   91.5196  0.696527
   92.5891  0.705568
   93.6711  0.714599
   94.7657  0.723133
   95.8732  0.731729
   96.9935  0.740420
   98.1270  0.747197
   99.2737  0.756959
   100.434  0.766388
   101.608  0.775835
   102.795  0.784469
   103.996  0.792170
   105.211  0.804620
   106.441  0.813434
   107.685  0.810812
   108.943  0.792898
   110.216  0.742012
   111.504  0.623018
   112.807  5.838945E-02
   114.126  3.877057E-02
   115.459  4.267238E-02
   116.809  3.908985E-02
   118.174  2.870227E-02
   119.555  2.914442E-02
   120.952  2.816363E-02
   122.365  2.585582E-02
   123.795  2.534447E-02
   125.242  2.244196E-02
   126.705  2.243518E-02
   128.186  2.831604E-02
   129.684  3.698293E-02
   131.200  4.719609E-02
   132.733  5.208727E-02
   134.284  5.289886E-02
   135.853  5.351268E-02
   137.441  5.490011E-02
   139.047  5.657678E-02
   140.672  5.693512E-02
   142.316  5.667176E-02
   143.979  5.723312E-02
   145.661  5.819064E-02
   147.364  5.856362E-02
   149.086  5.846385E-02
   150.828  5.863188E-02
   152.590  5.893291E-02
   154.374  5.880573E-02
   156.178  5.809836E-02
   158.003  5.745311E-02
   159.849  5.796080E-02
   161.717  5.937278E-02
   163.607  6.276534E-02
   165.519  6.728695E-02
   167.453  7.187214E-02
   169.410  7.621951E-02
   171.390  7.880389E-02
   173.393  8.176883E-02
   175.419  8.453151E-02
   177.469  8.855487E-02
   179.543  9.275530E-02
   181.641  9.465791E-02
   183.764  9.693025E-02
   185.911  9.886293E-02
   188.084  0.101074
   190.282  0.102009
   192.505  0.103912
   194.755  0.106710
   197.031  0.108779
   199.333  0.110528
   201.663  0.112708
   204.019  0.114252
   206.403  0.116694
   208.816  0.119945
   211.256  0.123055
   213.724  0.126803
   216.222  0.130001
   218.749  0.133839
   221.305  0.136973
   223.891  0.141142
   226.508  0.144418
   229.155  0.150516
   231.833  0.156842
   234.542  0.163227
   237.283  0.168162
   240.056  0.172724
   242.861  0.177747
   245.699  0.182916
   248.570  0.185454
   251.475  0.189092
   254.414  0.194989
   257.387  0.201102
   260.395  0.207406
   263.438  0.213909
   266.516  0.220616
   269.631  0.227533
   272.782  0.234667
   275.969  0.242025
   279.194  0.249614
   282.457  0.257439
   285.758  0.265511
   289.097  0.273835
   292.476  0.282420
   295.894  0.291276
   299.351  0.300408
   302.850  0.309828
   306.389  0.319542
   309.969  0.329559
   313.592  0.339893
   317.256  0.350422
   320.964  0.361204
   324.714  0.372319
   328.509  0.383774
   332.348  0.395581
   336.232  0.407754
   340.161  0.420299
   344.136  0.433233
   348.158  0.446563
   352.226  0.460303
   356.342  0.474465
   360.507  0.489065
   364.720  0.504114
   368.982  0.519624
   373.294  0.535614
   377.656  0.552095
   382.069  0.569083
   386.534  0.586593
   391.051  0.605194
   395.621  0.624640
   400.244  0.644711
   404.922  0.666033
   409.654  0.688107
   414.441  0.710914
   419.284  0.734476
   424.184  0.758820
   429.141  0.783971
   434.156  0.809954
   439.229  0.836798
   444.362  0.864533
   449.555  0.893187
   454.808  0.922790
   460.123  0.953375
   465.500  0.984974
   470.940  1.01762
   476.444  1.05135
   482.011  1.08619
   487.644  1.12219
   493.343  1.15939
   499.108  1.19781
   504.941  1.23751
   510.841  1.27853
   516.811  1.32091
   522.851  1.36469
   528.961  1.40992
   535.142  1.45664
   541.396  1.50493
   547.723  1.55481
   554.123  1.60634
   560.599  1.65957
   567.150  1.71586
   573.778  1.77416
   580.483  1.83445
   587.266  1.89677
   594.129  1.96122
   601.072  2.02786
   608.096  2.09676
   615.203  2.16799
   622.392  2.24166
   629.665  2.31782
   637.024  2.39657
   644.468  2.48231
   651.999  2.57172
   659.618  2.66435
   667.327  2.76032
   675.125  2.85574
   683.015  2.95097
   690.996  3.04566
   699.071  3.14340
   707.241  3.24835
   715.506  3.35969
   723.867  3.47486
   732.326  3.59581
   740.884  3.72135
   749.542  3.85129
   758.301  3.98577
   767.163  4.12493
   776.128  4.26896
   785.198  4.41801
   794.374  4.57227
   803.657  4.73190
   813.048  4.89711
   822.550  5.06809
   832.162  5.24506
   841.887  5.42821
   851.725  5.61772
   861.678  5.81386
   871.748  6.01684
   881.935  6.22660
   892.242  6.44274
   902.668  6.66635
   913.217  6.89775
   923.889  7.13720
   934.686  7.38491
   945.608  7.64403
   956.659  7.91329
   967.838  8.19202
   979.148  8.48052
   990.591  8.77923
   1002.17  9.08848
   1013.88  9.40855
   1025.73  9.73993
   1037.71  10.0830
   1049.84  10.4381
   1062.11  10.8059
   1074.52  11.1865
   1087.08  11.5805
   1099.78  11.9884
   1112.63  12.4105
   1125.64  12.8476
   1138.79  13.3001
   1152.10  13.7686
   1165.56  14.2536
   1179.18  14.7556
   1192.96  15.2752
   1206.90  15.8132
   1221.01  16.3702
   1235.28  16.9467
   1249.71  17.5436
   1264.31  18.1615
   1279.09  18.8011
   1294.04  19.4632
   1309.16  20.1487
   1324.46  20.8584
   1339.94  21.5930
   1355.59  22.3535
   1371.44  23.1413
   1387.46  23.9571
   1403.68  24.8017
   1420.08  25.6759
   1436.68  26.5809
   1453.46  27.5178
   1470.45  28.4879
   1487.63  29.4919
   1505.02  30.5314
   1522.61  31.6148
   1540.40  32.7535
   1558.40  33.9328
   1576.61  35.1547
   1595.04  36.4206
   1613.68  37.7320
   1632.53  39.0905
   1651.61  40.4980
   1670.91  41.9561
   1690.44  43.4671
   1710.19  45.0322
   1730.18  46.6534
   1750.40  48.3330
   1770.85  50.0732
   1791.55  51.8759
   1812.48  53.7433
   1833.66  55.6779
   1855.09  57.6820
   1876.77  59.7583
   1898.70  61.9094
   1920.89  64.1377
   1943.34  66.4459
   1966.05  68.8372
   1989.02  71.3147
   2012.27  73.8814
   2035.78  76.5651
   2059.57  79.3776
   2083.64  82.2937
   2107.99  85.3164
   2132.62  88.4500
   2157.55  91.6989
   2182.76  95.0665
   2208.27  98.5577
   2234.07  102.177
   2260.18  105.928
   2286.59  109.819
   2313.31  113.851
   2340.35  118.030
   2367.70  122.363
   2395.37  126.854
   2423.36  131.510
   2451.68  136.336
   2480.33  141.340
   2509.31  146.526
   2538.64  151.902
   2568.30  157.474
   2598.32  163.250
   2628.68  169.237
   2659.40  175.445
   2690.48  181.877
   2721.92  188.546
   2753.73  195.458
   2785.91  202.622
   2818.46  210.048
   2851.40  217.744
   2884.72  225.722
   2918.43  233.989
   2952.54  242.558
   2987.04  251.439
   3021.95  260.646
   3057.26  270.358
   3092.99  280.444
   3129.14  290.903
   3165.70  301.751
   3202.70  313.001
   3240.12  324.667
   3277.99  336.764
   3316.29  349.309
   3355.05  362.318
   3394.26  375.810
   3433.92  389.800
   3474.05  404.306
   3514.65  419.348
   3555.72  434.944
   3597.27  451.114
   3639.31  467.879
   3681.84  485.261
   3724.87  503.283
   3768.40  521.966
   3812.43  541.335
   3856.99  561.412
   3902.06  582.223
   3947.66  603.798
   3993.79  626.160
   4040.46  649.346
   4087.68  673.379
   4135.45  698.489
   4183.77  724.618
   4232.67  751.706
   4282.13  779.792
   4332.17  808.907
   4382.80  839.089
   4434.01  870.376
   4485.83  902.807
   4538.25  936.418
   4591.29  971.255
   4644.94  1007.36
   4699.22  1044.77
   4754.14  1083.54
   4809.69  1123.71
   4865.90  1165.32
   4922.76  1208.44
   4980.29  1253.11
   5038.49  1299.38
   5097.37  1347.31
   5156.94  1396.95
   5217.20  1448.35
   5278.17  1502.04
   5339.85  1557.67
   5402.25  1615.28
   5465.38  1674.94
   5529.25  1736.70
   5593.87  1800.63
   5659.24  1866.81
   5725.37  1935.31
   5792.28  2006.19
   5859.97  2079.53
   5928.45  2155.42
   5997.73  2233.90
   6067.82  2315.10
   6138.73  2399.07
   6210.46  2485.89
   6283.04  2575.64
   6356.46  2668.67
   6430.75  2765.22
   6505.90  2865.00
   6581.92  2968.09
   6658.84  3074.59
   6736.66  3184.56
   6815.38  3298.12
   6895.02  3415.35
   6975.60  3536.34
   7057.12  3661.15
   7139.59  3789.92
   7223.02  3922.71
   7307.43  4059.58
   7392.82  4200.66
   7479.22  4346.00
   7566.62  4495.70
   7655.04  4649.84
   7744.50  4808.52
   7835.00  4971.77
   7926.56  5139.68
   8019.19  5312.37
   8112.91  5490.12
   8207.71  5672.78
   8303.63  5860.36
   8400.67  6054.38
   8498.84  6253.67
   8598.15  6458.14
   8698.63  6667.83
   8800.29  6882.79
   8903.13  7103.03
   9007.17  7328.57
   9112.43  7559.37
   9218.91  7795.48
   9326.65  8036.88
   9435.64  8283.53
   9545.90  8535.40
   9657.46  8792.43
   9770.32  9054.59
   9884.49  9321.80
   10000.0  9594.00
