 Be Density=2.048, Angle=90.deg
 Photon Energy (eV), Atten Length (microns)
   30.0000  0.105703
   30.3506  0.110157
   30.7053  0.114798
   31.0641  0.119634
   31.4271  0.124674
   31.7944  0.129927
   32.1659  0.135401
   32.5418  0.141105
   32.9221  0.147050
   33.3068  0.153246
   33.6960  0.159702
   34.0898  0.165721
   34.4882  0.171258
   34.8912  0.176165
   35.2990  0.181213
   35.7115  0.186406
   36.1288  0.191748
   36.5510  0.197243
   36.9781  0.202895
   37.4103  0.208709
   37.8474  0.214691
   38.2897  0.220843
   38.7372  0.227171
   39.1899  0.231892
   39.6478  0.234838
   40.1112  0.239417
   40.5799  0.243176
   41.0541  0.247376
   41.5339  0.253138
   42.0192  0.257903
   42.5103  0.263434
   43.0071  0.267813
   43.5096  0.273551
   44.0181  0.278204
   44.5325  0.284245
   45.0529  0.290194
   45.5794  0.296841
   46.1120  0.303532
   46.6509  0.309381
   47.1961  0.315230
   47.7476  0.321008
   48.3056  0.325756
   48.8701  0.328304
   49.4412  0.334803
   50.0190  0.338664
   50.6035  0.340045
   51.1948  0.341431
   51.7931  0.342823
   52.3983  0.345318
   53.0107  0.349213
   53.6302  0.354376
   54.2569  0.361077
   54.8909  0.365540
   55.5324  0.372273
   56.1814  0.379537
   56.8379  0.388807
   57.5021  0.396918
   58.1741  0.404346
   58.8539  0.413073
   59.5417  0.420650
   60.2375  0.426794
   60.9414  0.432974
   61.6536  0.439212
   62.3741  0.443161
   63.1030  0.449360
   63.8404  0.453215
   64.5864  0.458522
   65.3412  0.462411
   66.1048  0.468674
   66.8773  0.473280
   67.6588  0.478821
   68.4495  0.484891
   69.2494  0.491384
   70.0586  0.500988
   70.8773  0.507780
   71.7056  0.513636
   72.5436  0.519561
   73.3913  0.525814
   74.2490  0.531473
   75.1166  0.536877
   75.9944  0.541293
   76.8825  0.545208
   77.7810  0.548996
   78.6899  0.552465
   79.6095  0.556242
   80.5398  0.559341
   81.4810  0.562617
   82.4332  0.566746
   83.3965  0.571169
   84.3711  0.577163
   85.3571  0.583502
   86.3545  0.589919
   87.3637  0.597220
   88.3846  0.604777
   89.4175  0.612534
   90.4624  0.620457
   91.5196  0.628507
   92.5891  0.636664
   93.6711  0.644814
   94.7657  0.652514
   95.8732  0.660271
   96.9935  0.668113
   98.1270  0.674228
   99.2737  0.683037
   100.434  0.691545
   101.608  0.700070
   102.795  0.707861
   103.996  0.714809
   105.211  0.726044
   106.441  0.733997
   107.685  0.731631
   108.943  0.715466
   110.216  0.669550
   111.504  0.562176
   112.807  5.268735E-02
   114.126  3.498438E-02
   115.459  3.850515E-02
   116.809  3.527248E-02
   118.174  2.589931E-02
   119.555  2.629828E-02
   120.952  2.541328E-02
   122.365  2.333083E-02
   123.795  2.286942E-02
   125.242  2.025036E-02
   126.705  2.024424E-02
   128.186  2.555080E-02
   129.684  3.337131E-02
   131.200  4.258709E-02
   132.733  4.700061E-02
   134.284  4.773295E-02
   135.853  4.828683E-02
   137.441  4.953877E-02
   139.047  5.105171E-02
   140.672  5.137504E-02
   142.316  5.113741E-02
   143.979  5.164395E-02
   145.661  5.250796E-02
   147.364  5.284451E-02
   149.086  5.275449E-02
   150.828  5.290611E-02
   152.590  5.317774E-02
   154.374  5.306299E-02
   156.178  5.242469E-02
   158.003  5.184245E-02
   159.849  5.230056E-02
   161.717  5.357466E-02
   163.607  5.663592E-02
   165.519  6.071596E-02
   167.453  6.485337E-02
   169.410  6.877619E-02
   171.390  7.110818E-02
   173.393  7.378359E-02
   175.419  7.627647E-02
   177.469  7.990693E-02
   179.543  8.369716E-02
   181.641  8.541397E-02
   183.764  8.746440E-02
   185.911  8.920833E-02
   188.084  9.120388E-02
   190.282  9.204733E-02
   192.505  9.376413E-02
   194.755  9.628896E-02
   197.031  9.815574E-02
   199.333  9.973404E-02
   201.663  0.101702
   204.019  0.103094
   206.403  0.105298
   208.816  0.108231
   211.256  0.111038
   213.724  0.114420
   216.222  0.117305
   218.749  0.120769
   221.305  0.123597
   223.891  0.127359
   226.508  0.130314
   229.155  0.135817
   231.833  0.141525
   234.542  0.147287
   237.283  0.151740
   240.056  0.155857
   242.861  0.160389
   245.699  0.165054
   248.570  0.167343
   251.475  0.170626
   254.414  0.175947
   257.387  0.181463
   260.395  0.187151
   263.438  0.193019
   266.516  0.199071
   269.631  0.205313
   272.782  0.211750
   275.969  0.218390
   279.194  0.225237
   282.457  0.232299
   285.758  0.239582
   289.097  0.247093
   292.476  0.254840
   295.894  0.262831
   299.351  0.271071
   302.850  0.279571
   306.389  0.288337
   309.969  0.297375
   313.592  0.306700
   317.256  0.316201
   320.964  0.325930
   324.714  0.335960
   328.509  0.346296
   332.348  0.356950
   336.232  0.367934
   340.161  0.379254
   344.136  0.390925
   348.158  0.402953
   352.226  0.415351
   356.342  0.428131
   360.507  0.441305
   364.720  0.454884
   368.982  0.468880
   373.294  0.483308
   377.656  0.498179
   382.069  0.513508
   386.534  0.529309
   391.051  0.546093
   395.621  0.563640
   400.244  0.581751
   404.922  0.600991
   409.654  0.620909
   414.441  0.641488
   419.284  0.662750
   424.184  0.684717
   429.141  0.707411
   434.156  0.730856
   439.229  0.755080
   444.362  0.780106
   449.555  0.805962
   454.808  0.832674
   460.123  0.860272
   465.500  0.888785
   470.940  0.918243
   476.444  0.948677
   482.011  0.980120
   487.644  1.01260
   493.343  1.04617
   499.108  1.08084
   504.941  1.11666
   510.841  1.15367
   516.811  1.19191
   522.851  1.23142
   528.961  1.27223
   535.142  1.31439
   541.396  1.35796
   547.723  1.40297
   554.123  1.44947
   560.599  1.49751
   567.150  1.54830
   573.778  1.60091
   580.483  1.65530
   587.266  1.71154
   594.129  1.76969
   601.072  1.82982
   608.096  1.89200
   615.203  1.95628
   622.392  2.02275
   629.665  2.09147
   637.024  2.16253
   644.468  2.23989
   651.999  2.32058
   659.618  2.40416
   667.327  2.49076
   675.125  2.57686
   683.015  2.66279
   690.996  2.74823
   699.071  2.83642
   707.241  2.93112
   715.506  3.03159
   723.867  3.13552
   732.326  3.24466
   740.884  3.35794
   749.542  3.47519
   758.301  3.59653
   767.163  3.72211
   776.128  3.85207
   785.198  3.98656
   794.374  4.12576
   803.657  4.26980
   813.048  4.41887
   822.550  4.57316
   832.162  4.73285
   841.887  4.89811
   851.725  5.06911
   861.678  5.24610
   871.748  5.42926
   881.935  5.61853
   892.242  5.81356
   902.668  6.01534
   913.217  6.22414
   923.889  6.44021
   934.686  6.66373
   945.608  6.89754
   956.659  7.14050
   967.838  7.39202
   979.148  7.65235
   990.591  7.92188
   1002.17  8.20093
   1013.88  8.48974
   1025.73  8.78876
   1037.71  9.09831
   1049.84  9.41877
   1062.11  9.75062
   1074.52  10.0941
   1087.08  10.4496
   1099.78  10.8176
   1112.63  11.1985
   1125.64  11.5929
   1138.79  12.0013
   1152.10  12.4241
   1165.56  12.8617
   1179.18  13.3146
   1192.96  13.7835
   1206.90  14.2689
   1221.01  14.7715
   1235.28  15.2918
   1249.71  15.8303
   1264.31  16.3879
   1279.09  16.9651
   1294.04  17.5625
   1309.16  18.1811
   1324.46  18.8214
   1339.94  19.4843
   1355.59  20.1705
   1371.44  20.8814
   1387.46  21.6175
   1403.68  22.3796
   1420.08  23.1685
   1436.68  23.9851
   1453.46  24.8305
   1470.45  25.7059
   1487.63  26.6118
   1505.02  27.5498
   1522.61  28.5274
   1540.40  29.5549
   1558.40  30.6191
   1576.61  31.7216
   1595.04  32.8639
   1613.68  34.0472
   1632.53  35.2731
   1651.61  36.5431
   1670.91  37.8588
   1690.44  39.2222
   1710.19  40.6345
   1730.18  42.0974
   1750.40  43.6130
   1770.85  45.1832
   1791.55  46.8098
   1812.48  48.4950
   1833.66  50.2406
   1855.09  52.0490
   1876.77  53.9226
   1898.70  55.8635
   1920.89  57.8742
   1943.34  59.9571
   1966.05  62.1148
   1989.02  64.3504
   2012.27  66.6664
   2035.78  69.0880
   2059.57  71.6259
   2083.64  74.2572
   2107.99  76.9847
   2132.62  79.8123
   2157.55  82.7439
   2182.76  85.7826
   2208.27  88.9329
   2234.07  92.1987
   2260.18  95.5839
   2286.59  99.0941
   2313.31  102.732
   2340.35  106.503
   2367.70  110.413
   2395.37  114.466
   2423.36  118.667
   2451.68  123.022
   2480.33  127.537
   2509.31  132.217
   2538.64  137.068
   2568.30  142.095
   2598.32  147.307
   2628.68  152.710
   2659.40  158.311
   2690.48  164.116
   2721.92  170.133
   2753.73  176.370
   2785.91  182.835
   2818.46  189.535
   2851.40  196.480
   2884.72  203.679
   2918.43  211.139
   2952.54  218.871
   2987.04  226.885
   3021.95  235.192
   3057.26  243.956
   3092.99  253.056
   3129.14  262.494
   3165.70  272.284
   3202.70  282.435
   3240.12  292.961
   3277.99  303.877
   3316.29  315.197
   3355.05  326.936
   3394.26  339.110
   3433.92  351.734
   3474.05  364.823
   3514.65  378.396
   3555.72  392.469
   3597.27  407.060
   3639.31  422.188
   3681.84  437.873
   3724.87  454.134
   3768.40  470.993
   3812.43  488.470
   3856.99  506.586
   3902.06  525.366
   3947.66  544.834
   3993.79  565.012
   4040.46  585.933
   4087.68  607.619
   4135.45  630.277
   4183.77  653.855
   4232.67  678.297
   4282.13  703.640
   4332.17  729.912
   4382.80  757.147
   4434.01  785.378
   4485.83  814.642
   4538.25  844.971
   4591.29  876.406
   4644.94  908.986
   4699.22  942.744
   4754.14  977.724
   4809.69  1013.97
   4865.90  1051.52
   4922.76  1090.43
   4980.29  1130.73
   5038.49  1172.49
   5097.37  1215.74
   5156.94  1260.53
   5217.20  1306.91
   5278.17  1355.36
   5339.85  1405.55
   5402.25  1457.53
   5465.38  1511.37
   5529.25  1567.10
   5593.87  1624.79
   5659.24  1684.50
   5725.37  1746.32
   5792.28  1810.27
   5859.97  1876.45
   5928.45  1944.93
   5997.73  2015.75
   6067.82  2089.02
   6138.73  2164.79
   6210.46  2243.13
   6283.04  2324.11
   6356.46  2408.06
   6430.75  2495.18
   6505.90  2585.22
   6581.92  2678.24
   6658.84  2774.33
   6736.66  2873.57
   6815.38  2976.04
   6895.02  3081.82
   6975.60  3190.99
   7057.12  3303.62
   7139.59  3419.81
   7223.02  3539.63
   7307.43  3663.14
   7392.82  3790.44
   7479.22  3921.59
   7566.62  4056.66
   7655.04  4195.75
   7744.50  4338.94
   7835.00  4486.25
   7926.56  4637.76
   8019.19  4793.58
   8112.91  4953.97
   8207.71  5118.79
   8303.63  5288.06
   8400.67  5463.13
   8498.84  5642.96
   8598.15  5827.47
   8698.63  6016.68
   8800.29  6210.64
   8903.13  6409.37
   9007.17  6612.89
   9112.43  6821.15
   9218.91  7034.20
   9326.65  7252.03
   9435.64  7474.59
   9545.90  7701.87
   9657.46  7933.79
   9770.32  8170.36
   9884.49  8411.47
   10000.0  8657.09
