 Be Density=2.648, Angle=90.deg
 Photon Energy (eV), Atten Length (microns)
   30.0000  8.175241E-02
   30.3506  8.519691E-02
   30.7053  8.878601E-02
   31.0641  9.252658E-02
   31.4271  9.642477E-02
   31.7944  0.100487
   32.1659  0.104721
   32.5418  0.109133
   32.9221  0.113731
   33.3068  0.118523
   33.6960  0.123516
   34.0898  0.128171
   34.4882  0.132453
   34.8912  0.136249
   35.2990  0.140153
   35.7115  0.144169
   36.1288  0.148301
   36.5510  0.152551
   36.9781  0.156922
   37.4103  0.161419
   37.8474  0.166045
   38.2897  0.170803
   38.7372  0.175697
   39.1899  0.179348
   39.6478  0.181627
   40.1112  0.185168
   40.5799  0.188076
   41.0541  0.191324
   41.5339  0.195780
   42.0192  0.199466
   42.5103  0.203744
   43.0071  0.207130
   43.5096  0.211568
   44.0181  0.215167
   44.5325  0.219839
   45.0529  0.224440
   45.5794  0.229581
   46.1120  0.234756
   46.6509  0.239280
   47.1961  0.243803
   47.7476  0.248272
   48.3056  0.251944
   48.8701  0.253915
   49.4412  0.258942
   50.0190  0.261928
   50.6035  0.262995
   51.1948  0.264068
   51.7931  0.265144
   52.3983  0.267074
   53.0107  0.270086
   53.6302  0.274079
   54.2569  0.279262
   54.8909  0.282714
   55.5324  0.287921
   56.1814  0.293540
   56.8379  0.300709
   57.5021  0.306982
   58.1741  0.312727
   58.8539  0.319476
   59.5417  0.325337
   60.2375  0.330088
   60.9414  0.334868
   61.6536  0.339693
   62.3741  0.342747
   63.1030  0.347541
   63.8404  0.350523
   64.5864  0.354627
   65.3412  0.357635
   66.1048  0.362479
   66.8773  0.366041
   67.6588  0.370327
   68.4495  0.375022
   69.2494  0.380043
   70.0586  0.387471
   70.8773  0.392724
   71.7056  0.397253
   72.5436  0.401836
   73.3913  0.406672
   74.2490  0.411049
   75.1166  0.415228
   75.9944  0.418643
   76.8825  0.421671
   77.7810  0.424601
   78.6899  0.427284
   79.6095  0.430205
   80.5398  0.432602
   81.4810  0.435136
   82.4332  0.438329
   83.3965  0.441750
   84.3711  0.446386
   85.3571  0.451289
   86.3545  0.456252
   87.3637  0.461898
   88.3846  0.467743
   89.4175  0.473742
   90.4624  0.479870
   91.5196  0.486096
   92.5891  0.492405
   93.6711  0.498708
   94.7657  0.504664
   95.8732  0.510663
   96.9935  0.516728
   98.1270  0.521458
   99.2737  0.528270
   100.434  0.534851
   101.608  0.541444
   102.795  0.547469
   103.996  0.552843
   105.211  0.561532
   106.441  0.567683
   107.685  0.565853
   108.943  0.553352
   110.216  0.517839
   111.504  0.434795
   112.807  4.074914E-02
   114.126  2.705740E-02
   115.459  2.978042E-02
   116.809  2.728023E-02
   118.174  2.003089E-02
   119.555  2.033946E-02
   120.952  1.965498E-02
   122.365  1.804439E-02
   123.795  1.768753E-02
   125.242  1.566191E-02
   126.705  1.565718E-02
   128.186  1.976134E-02
   129.684  2.580984E-02
   131.200  3.293745E-02
   132.733  3.635093E-02
   134.284  3.691733E-02
   135.853  3.734571E-02
   137.441  3.831398E-02
   139.047  3.948410E-02
   140.672  3.973417E-02
   142.316  3.955039E-02
   143.979  3.994215E-02
   145.661  4.061039E-02
   147.364  4.087069E-02
   149.086  4.080106E-02
   150.828  4.091832E-02
   152.590  4.112841E-02
   154.374  4.103965E-02
   156.178  4.054599E-02
   158.003  4.009567E-02
   159.849  4.044998E-02
   161.717  4.143539E-02
   163.607  4.380301E-02
   165.519  4.695857E-02
   167.453  5.015850E-02
   169.410  5.319246E-02
   171.390  5.499606E-02
   173.393  5.706526E-02
   175.419  5.899328E-02
   177.469  6.180112E-02
   179.543  6.473255E-02
   181.641  6.606036E-02
   183.764  6.764618E-02
   185.911  6.899498E-02
   188.084  7.053835E-02
   190.282  7.119069E-02
   192.505  7.251848E-02
   194.755  7.447123E-02
   197.031  7.591502E-02
   199.333  7.713570E-02
   201.663  7.865737E-02
   204.019  7.973459E-02
   206.403  8.143917E-02
   208.816  8.370762E-02
   211.256  8.587797E-02
   213.724  8.849382E-02
   216.222  9.072546E-02
   218.749  9.340431E-02
   221.305  9.559175E-02
   223.891  9.850093E-02
   226.508  0.100787
   229.155  0.105043
   231.833  0.109458
   234.542  0.113914
   237.283  0.117358
   240.056  0.120542
   242.861  0.124047
   245.699  0.127655
   248.570  0.129425
   251.475  0.131965
   254.414  0.136080
   257.387  0.140346
   260.395  0.144745
   263.438  0.149284
   266.516  0.153965
   269.631  0.158792
   272.782  0.163771
   275.969  0.168906
   279.194  0.174202
   282.457  0.179663
   285.758  0.185296
   289.097  0.191105
   292.476  0.197097
   295.894  0.203277
   299.351  0.209650
   302.850  0.216224
   306.389  0.223004
   309.969  0.229994
   313.592  0.237206
   317.256  0.244554
   320.964  0.252079
   324.714  0.259836
   328.509  0.267830
   332.348  0.276070
   336.232  0.284565
   340.161  0.293321
   344.136  0.302347
   348.158  0.311650
   352.226  0.321239
   356.342  0.331122
   360.507  0.341311
   364.720  0.351814
   368.982  0.362638
   373.294  0.373797
   377.656  0.385299
   382.069  0.397154
   386.534  0.409375
   391.051  0.422356
   395.621  0.435927
   400.244  0.449934
   404.922  0.464815
   409.654  0.480220
   414.441  0.496136
   419.284  0.512580
   424.184  0.529569
   429.141  0.547122
   434.156  0.565255
   439.229  0.583989
   444.362  0.603345
   449.555  0.623342
   454.808  0.644001
   460.123  0.665346
   465.500  0.687399
   470.940  0.710182
   476.444  0.733720
   482.011  0.758038
   487.644  0.783162
   493.343  0.809121
   499.108  0.835937
   504.941  0.863643
   510.841  0.892268
   516.811  0.921841
   522.851  0.952394
   528.961  0.983959
   535.142  1.01657
   541.396  1.05027
   547.723  1.08508
   554.123  1.12104
   560.599  1.15819
   567.150  1.19748
   573.778  1.23816
   580.483  1.28023
   587.266  1.32373
   594.129  1.36870
   601.072  1.41521
   608.096  1.46330
   615.203  1.51301
   622.392  1.56442
   629.665  1.61757
   637.024  1.67253
   644.468  1.73237
   651.999  1.79477
   659.618  1.85941
   667.327  1.92639
   675.125  1.99298
   683.015  2.05944
   690.996  2.12552
   699.071  2.19373
   707.241  2.26697
   715.506  2.34468
   723.867  2.42506
   732.326  2.50946
   740.884  2.59708
   749.542  2.68776
   758.301  2.78161
   767.163  2.87873
   776.128  2.97924
   785.198  3.08326
   794.374  3.19092
   803.657  3.30232
   813.048  3.41762
   822.550  3.53694
   832.162  3.66045
   841.887  3.78827
   851.725  3.92052
   861.678  4.05740
   871.748  4.19907
   881.935  4.34545
   892.242  4.49629
   902.668  4.65235
   913.217  4.81384
   923.889  4.98095
   934.686  5.15382
   945.608  5.33466
   956.659  5.52256
   967.838  5.71709
   979.148  5.91843
   990.591  6.12690
   1002.17  6.34272
   1013.88  6.56609
   1025.73  6.79735
   1037.71  7.03676
   1049.84  7.28461
   1062.11  7.54127
   1074.52  7.80689
   1087.08  8.08185
   1099.78  8.36650
   1112.63  8.66110
   1125.64  8.96614
   1138.79  9.28198
   1152.10  9.60893
   1165.56  9.94740
   1179.18  10.2977
   1192.96  10.6603
   1206.90  11.0358
   1221.01  11.4245
   1235.28  11.8269
   1249.71  12.2434
   1264.31  12.6746
   1279.09  13.1210
   1294.04  13.5831
   1309.16  14.0615
   1324.46  14.5567
   1339.94  15.0694
   1355.59  15.6002
   1371.44  16.1500
   1387.46  16.7193
   1403.68  17.3087
   1420.08  17.9188
   1436.68  18.5504
   1453.46  19.2043
   1470.45  19.8813
   1487.63  20.5820
   1505.02  21.3074
   1522.61  22.0635
   1540.40  22.8582
   1558.40  23.6812
   1576.61  24.5339
   1595.04  25.4174
   1613.68  26.3326
   1632.53  27.2807
   1651.61  28.2629
   1670.91  29.2806
   1690.44  30.3350
   1710.19  31.4273
   1730.18  32.5587
   1750.40  33.7309
   1770.85  34.9453
   1791.55  36.2034
   1812.48  37.5067
   1833.66  38.8568
   1855.09  40.2554
   1876.77  41.7045
   1898.70  43.2056
   1920.89  44.7607
   1943.34  46.3716
   1966.05  48.0405
   1989.02  49.7695
   2012.27  51.5608
   2035.78  53.4336
   2059.57  55.3964
   2083.64  57.4316
   2107.99  59.5411
   2132.62  61.7279
   2157.55  63.9953
   2182.76  66.3455
   2208.27  68.7820
   2234.07  71.3078
   2260.18  73.9259
   2286.59  76.6407
   2313.31  79.4547
   2340.35  82.3711
   2367.70  85.3952
   2395.37  88.5298
   2423.36  91.7790
   2451.68  95.1471
   2480.33  98.6388
   2509.31  102.258
   2538.64  106.010
   2568.30  109.899
   2598.32  113.930
   2628.68  118.108
   2659.40  122.440
   2690.48  126.930
   2721.92  131.583
   2753.73  136.407
   2785.91  141.407
   2818.46  146.589
   2851.40  151.961
   2884.72  157.528
   2918.43  163.298
   2952.54  169.278
   2987.04  175.476
   3021.95  181.901
   3057.26  188.679
   3092.99  195.717
   3129.14  203.017
   3165.70  210.588
   3202.70  218.439
   3240.12  226.580
   3277.99  235.022
   3316.29  243.777
   3355.05  252.857
   3394.26  262.272
   3433.92  272.036
   3474.05  282.159
   3514.65  292.657
   3555.72  303.541
   3597.27  314.826
   3639.31  326.526
   3681.84  338.657
   3724.87  351.234
   3768.40  364.273
   3812.43  377.790
   3856.99  391.801
   3902.06  406.325
   3947.66  421.382
   3993.79  436.988
   4040.46  453.169
   4087.68  469.941
   4135.45  487.465
   4183.77  505.700
   4232.67  524.605
   4282.13  544.205
   4332.17  564.524
   4382.80  585.588
   4434.01  607.422
   4485.83  630.055
   4538.25  653.512
   4591.29  677.824
   4644.94  703.022
   4699.22  729.131
   4754.14  756.186
   4809.69  784.218
   4865.90  813.262
   4922.76  843.354
   4980.29  874.526
   5038.49  906.817
   5097.37  940.267
   5156.94  974.909
   5217.20  1010.78
   5278.17  1048.25
   5339.85  1087.08
   5402.25  1127.28
   5465.38  1168.91
   5529.25  1212.01
   5593.87  1256.63
   5659.24  1302.82
   5725.37  1350.62
   5792.28  1400.09
   5859.97  1451.28
   5928.45  1504.23
   5997.73  1559.01
   6067.82  1615.68
   6138.73  1674.28
   6210.46  1734.87
   6283.04  1797.50
   6356.46  1862.43
   6430.75  1929.81
   6505.90  1999.44
   6581.92  2071.39
   6658.84  2145.71
   6736.66  2222.46
   6815.38  2301.71
   6895.02  2383.53
   6975.60  2467.96
   7057.12  2555.07
   7139.59  2644.93
   7223.02  2737.60
   7307.43  2833.12
   7392.82  2931.58
   7479.22  3033.01
   7566.62  3137.48
   7655.04  3245.05
   7744.50  3355.79
   7835.00  3469.73
   7926.56  3586.91
   8019.19  3707.42
   8112.91  3831.47
   8207.71  3958.95
   8303.63  4089.86
   8400.67  4225.26
   8498.84  4364.34
   8598.15  4507.04
   8698.63  4653.38
   8800.29  4803.40
   8903.13  4957.10
   9007.17  5114.50
   9112.43  5275.57
   9218.91  5440.35
   9326.65  5608.82
   9435.64  5780.95
   9545.90  5956.73
   9657.46  6136.11
   9770.32  6319.07
   9884.49  6505.55
   10000.0  6695.51
