 Be Density=3.048, Angle=90.deg
 Photon Energy (eV), Atten Length (microns)
   30.0000  7.102374E-02
   30.3506  7.401621E-02
   30.7053  7.713430E-02
   31.0641  8.038399E-02
   31.4271  8.377060E-02
   31.7944  8.730002E-02
   32.1659  9.097789E-02
   32.5418  9.481089E-02
   32.9221  9.880546E-02
   33.3068  0.102968
   33.6960  0.107307
   34.0898  0.111351
   34.4882  0.115071
   34.8912  0.118368
   35.2990  0.121760
   35.7115  0.125249
   36.1288  0.128839
   36.5510  0.132531
   36.9781  0.136328
   37.4103  0.140235
   37.8474  0.144254
   38.2897  0.148388
   38.7372  0.152640
   39.1899  0.155812
   39.6478  0.157791
   40.1112  0.160868
   40.5799  0.163394
   41.0541  0.166216
   41.5339  0.170087
   42.0192  0.173289
   42.5103  0.177006
   43.0071  0.179948
   43.5096  0.183804
   44.0181  0.186929
   44.5325  0.190989
   45.0529  0.194986
   45.5794  0.199452
   46.1120  0.203948
   46.6509  0.207878
   47.1961  0.211808
   47.7476  0.215690
   48.3056  0.218880
   48.8701  0.220593
   49.4412  0.224960
   50.0190  0.227554
   50.6035  0.228482
   51.1948  0.229413
   51.7931  0.230348
   52.3983  0.232025
   53.0107  0.234642
   53.6302  0.238111
   54.2569  0.242614
   54.8909  0.245612
   55.5324  0.250136
   56.1814  0.255017
   56.8379  0.261246
   57.5021  0.266696
   58.1741  0.271686
   58.8539  0.277550
   59.5417  0.282642
   60.2375  0.286770
   60.9414  0.290922
   61.6536  0.295113
   62.3741  0.297767
   63.1030  0.301932
   63.8404  0.304523
   64.5864  0.308088
   65.3412  0.310701
   66.1048  0.314910
   66.8773  0.318004
   67.6588  0.321728
   68.4495  0.325806
   69.2494  0.330169
   70.0586  0.336622
   70.8773  0.341185
   71.7056  0.345120
   72.5436  0.349101
   73.3913  0.353303
   74.2490  0.357105
   75.1166  0.360736
   75.9944  0.363703
   76.8825  0.366334
   77.7810  0.368879
   78.6899  0.371210
   79.6095  0.373748
   80.5398  0.375830
   81.4810  0.378031
   82.4332  0.380806
   83.3965  0.383777
   84.3711  0.387805
   85.3571  0.392064
   86.3545  0.396376
   87.3637  0.401282
   88.3846  0.406360
   89.4175  0.411571
   90.4624  0.416895
   91.5196  0.422304
   92.5891  0.427785
   93.6711  0.433261
   94.7657  0.438435
   95.8732  0.443647
   96.9935  0.448916
   98.1270  0.453025
   99.2737  0.458944
   100.434  0.464660
   101.608  0.470388
   102.795  0.475623
   103.996  0.480292
   105.211  0.487841
   106.441  0.493184
   107.685  0.491594
   108.943  0.480733
   110.216  0.449881
   111.504  0.377735
   112.807  3.540148E-02
   114.126  2.350657E-02
   115.459  2.587222E-02
   116.809  2.370015E-02
   118.174  1.740216E-02
   119.555  1.767024E-02
   120.952  1.707559E-02
   122.365  1.567636E-02
   123.795  1.536633E-02
   125.242  1.360654E-02
   126.705  1.360243E-02
   128.186  1.716799E-02
   129.684  2.242272E-02
   131.200  2.861495E-02
   132.733  3.158047E-02
   134.284  3.207254E-02
   135.853  3.244470E-02
   137.441  3.328590E-02
   139.047  3.430246E-02
   140.672  3.451971E-02
   142.316  3.436004E-02
   143.979  3.470039E-02
   145.661  3.528094E-02
   147.364  3.550708E-02
   149.086  3.544659E-02
   150.828  3.554846E-02
   152.590  3.573098E-02
   154.374  3.565387E-02
   156.178  3.522499E-02
   158.003  3.483377E-02
   159.849  3.514159E-02
   161.717  3.599767E-02
   163.607  3.805458E-02
   165.519  4.079603E-02
   167.453  4.357602E-02
   169.410  4.621183E-02
   171.390  4.777873E-02
   173.393  4.957637E-02
   175.419  5.125138E-02
   177.469  5.369074E-02
   179.543  5.623746E-02
   181.641  5.739102E-02
   183.764  5.876873E-02
   185.911  5.994050E-02
   188.084  6.128134E-02
   190.282  6.184808E-02
   192.505  6.300161E-02
   194.755  6.469810E-02
   197.031  6.595241E-02
   199.333  6.701290E-02
   201.663  6.833488E-02
   204.019  6.927073E-02
   206.403  7.075161E-02
   208.816  7.272237E-02
   211.256  7.460789E-02
   213.724  7.688046E-02
   216.222  7.881922E-02
   218.749  8.114653E-02
   221.305  8.304691E-02
   223.891  8.557430E-02
   226.508  8.756027E-02
   229.155  9.125774E-02
   231.833  9.509302E-02
   234.542  9.896427E-02
   237.283  0.101956
   240.056  0.104723
   242.861  0.107768
   245.699  0.110902
   248.570  0.112440
   251.475  0.114647
   254.414  0.118222
   257.387  0.121928
   260.395  0.125750
   263.438  0.129693
   266.516  0.133759
   269.631  0.137953
   272.782  0.142278
   275.969  0.146740
   279.194  0.151341
   282.457  0.156085
   285.758  0.160979
   289.097  0.166026
   292.476  0.171231
   295.894  0.176601
   299.351  0.182137
   302.850  0.187848
   306.389  0.193738
   309.969  0.199811
   313.592  0.206077
   317.256  0.212460
   320.964  0.218998
   324.714  0.225737
   328.509  0.232682
   332.348  0.239841
   336.232  0.247221
   340.161  0.254827
   344.136  0.262669
   348.158  0.270751
   352.226  0.279081
   356.342  0.287668
   360.507  0.296520
   364.720  0.305644
   368.982  0.315048
   373.294  0.324742
   377.656  0.334735
   382.069  0.345034
   386.534  0.355651
   391.051  0.366929
   395.621  0.378719
   400.244  0.390888
   404.922  0.403815
   409.654  0.417199
   414.441  0.431026
   419.284  0.445312
   424.184  0.460072
   429.141  0.475321
   434.156  0.491074
   439.229  0.507350
   444.362  0.524165
   449.555  0.541539
   454.808  0.559487
   460.123  0.578030
   465.500  0.597189
   470.940  0.616982
   476.444  0.637432
   482.011  0.658558
   487.644  0.680385
   493.343  0.702937
   499.108  0.726234
   504.941  0.750304
   510.841  0.775173
   516.811  0.800864
   522.851  0.827408
   528.961  0.854831
   535.142  0.883163
   541.396  0.912436
   547.723  0.942678
   554.123  0.973920
   560.599  1.00620
   567.150  1.04033
   573.778  1.07567
   580.483  1.11222
   587.266  1.15001
   594.129  1.18908
   601.072  1.22949
   608.096  1.27126
   615.203  1.31445
   622.392  1.35911
   629.665  1.40529
   637.024  1.45304
   644.468  1.50502
   651.999  1.55923
   659.618  1.61540
   667.327  1.67358
   675.125  1.73143
   683.015  1.78917
   690.996  1.84658
   699.071  1.90584
   707.241  1.96947
   715.506  2.03698
   723.867  2.10681
   732.326  2.18014
   740.884  2.25625
   749.542  2.33503
   758.301  2.41657
   767.163  2.50094
   776.128  2.58827
   785.198  2.67863
   794.374  2.77216
   803.657  2.86895
   813.048  2.96911
   822.550  3.07278
   832.162  3.18008
   841.887  3.29112
   851.725  3.40602
   861.678  3.52494
   871.748  3.64801
   881.935  3.77518
   892.242  3.90623
   902.668  4.04180
   913.217  4.18210
   923.889  4.32728
   934.686  4.47746
   945.608  4.63457
   956.659  4.79782
   967.838  4.96681
   979.148  5.14173
   990.591  5.32284
   1002.17  5.51034
   1013.88  5.70439
   1025.73  5.90531
   1037.71  6.11330
   1049.84  6.32862
   1062.11  6.55160
   1074.52  6.78237
   1087.08  7.02124
   1099.78  7.26853
   1112.63  7.52448
   1125.64  7.78948
   1138.79  8.06387
   1152.10  8.34792
   1165.56  8.64196
   1179.18  8.94632
   1192.96  9.26132
   1206.90  9.58752
   1221.01  9.92522
   1235.28  10.2748
   1249.71  10.6367
   1264.31  11.0113
   1279.09  11.3991
   1294.04  11.8006
   1309.16  12.2162
   1324.46  12.6464
   1339.94  13.0918
   1355.59  13.5529
   1371.44  14.0305
   1387.46  14.5251
   1403.68  15.0372
   1420.08  15.5673
   1436.68  16.1159
   1453.46  16.6840
   1470.45  17.2722
   1487.63  17.8809
   1505.02  18.5111
   1522.61  19.1680
   1540.40  19.8584
   1558.40  20.5735
   1576.61  21.3143
   1595.04  22.0818
   1613.68  22.8769
   1632.53  23.7005
   1651.61  24.5539
   1670.91  25.4380
   1690.44  26.3541
   1710.19  27.3030
   1730.18  28.2859
   1750.40  29.3043
   1770.85  30.3593
   1791.55  31.4523
   1812.48  32.5845
   1833.66  33.7575
   1855.09  34.9726
   1876.77  36.2314
   1898.70  37.5356
   1920.89  38.8866
   1943.34  40.2861
   1966.05  41.7359
   1989.02  43.2381
   2012.27  44.7943
   2035.78  46.4214
   2059.57  48.1266
   2083.64  49.8946
   2107.99  51.7273
   2132.62  53.6272
   2157.55  55.5970
   2182.76  57.6387
   2208.27  59.7555
   2234.07  61.9498
   2260.18  64.2243
   2286.59  66.5829
   2313.31  69.0276
   2340.35  71.5613
   2367.70  74.1885
   2395.37  76.9117
   2423.36  79.7345
   2451.68  82.6606
   2480.33  85.6941
   2509.31  88.8385
   2538.64  92.0979
   2568.30  95.4762
   2598.32  98.9782
   2628.68  102.609
   2659.40  106.372
   2690.48  110.272
   2721.92  114.315
   2753.73  118.506
   2785.91  122.850
   2818.46  127.352
   2851.40  132.018
   2884.72  136.855
   2918.43  141.867
   2952.54  147.063
   2987.04  152.447
   3021.95  158.029
   3057.26  163.918
   3092.99  170.033
   3129.14  176.374
   3165.70  182.952
   3202.70  189.772
   3240.12  196.845
   3277.99  204.180
   3316.29  211.786
   3355.05  219.673
   3394.26  227.853
   3433.92  236.335
   3474.05  245.130
   3514.65  254.250
   3555.72  263.706
   3597.27  273.510
   3639.31  283.675
   3681.84  294.214
   3724.87  305.140
   3768.40  316.468
   3812.43  328.211
   3856.99  340.383
   3902.06  353.002
   3947.66  366.082
   3993.79  379.640
   4040.46  393.698
   4087.68  408.269
   4135.45  423.493
   4183.77  439.335
   4232.67  455.759
   4282.13  472.787
   4332.17  490.440
   4382.80  508.739
   4434.01  527.708
   4485.83  547.371
   4538.25  567.750
   4591.29  588.871
   4644.94  610.762
   4699.22  633.445
   4754.14  656.949
   4809.69  681.302
   4865.90  706.535
   4922.76  732.678
   4980.29  759.759
   5038.49  787.812
   5097.37  816.872
   5156.94  846.968
   5217.20  878.131
   5278.17  910.687
   5339.85  944.414
   5402.25  979.340
   5465.38  1015.51
   5529.25  1052.96
   5593.87  1091.72
   5659.24  1131.85
   5725.37  1173.38
   5792.28  1216.35
   5859.97  1260.82
   5928.45  1306.83
   5997.73  1354.41
   6067.82  1403.65
   6138.73  1454.56
   6210.46  1507.19
   6283.04  1561.61
   6356.46  1618.01
   6430.75  1676.55
   6505.90  1737.05
   6581.92  1799.55
   6658.84  1864.12
   6736.66  1930.80
   6815.38  1999.65
   6895.02  2070.73
   6975.60  2144.08
   7057.12  2219.75
   7139.59  2297.83
   7223.02  2378.34
   7307.43  2461.32
   7392.82  2546.85
   7479.22  2634.98
   7566.62  2725.74
   7655.04  2819.19
   7744.50  2915.40
   7835.00  3014.38
   7926.56  3116.18
   8019.19  3220.88
   8112.91  3328.65
   8207.71  3439.40
   8303.63  3553.13
   8400.67  3670.77
   8498.84  3791.60
   8598.15  3915.57
   8698.63  4042.70
   8800.29  4173.03
   8903.13  4306.56
   9007.17  4443.30
   9112.43  4583.24
   9218.91  4726.39
   9326.65  4872.75
   9435.64  5022.30
   9545.90  5175.01
   9657.46  5330.84
   9770.32  5489.79
   9884.49  5651.80
   10000.0  5816.83
