 Be Density=4.048, Angle=90.deg
 Photon Energy (eV), Atten Length (microns)
   30.0000  5.347836E-02
   30.3506  5.573158E-02
   30.7053  5.807938E-02
   31.0641  6.052628E-02
   31.4271  6.307629E-02
   31.7944  6.573382E-02
   32.1659  6.850312E-02
   32.5418  7.138922E-02
   32.9221  7.439701E-02
   33.3068  7.753152E-02
   33.6960  8.079806E-02
   34.0898  8.384303E-02
   34.4882  8.664422E-02
   34.8912  8.912721E-02
   35.2990  9.168110E-02
   35.7115  9.430823E-02
   36.1288  9.701087E-02
   36.5510  9.979095E-02
   36.9781  0.102651
   37.4103  0.105592
   37.8474  0.108618
   38.2897  0.111731
   38.7372  0.114932
   39.1899  0.117321
   39.6478  0.118811
   40.1112  0.121128
   40.5799  0.123030
   41.0541  0.125155
   41.5339  0.128070
   42.0192  0.130480
   42.5103  0.133279
   43.0071  0.135494
   43.5096  0.138398
   44.0181  0.140751
   44.5325  0.143808
   45.0529  0.146817
   45.5794  0.150181
   46.1120  0.153566
   46.6509  0.156525
   47.1961  0.159484
   47.7476  0.162407
   48.3056  0.164809
   48.8701  0.166099
   49.4412  0.169387
   50.0190  0.171340
   50.6035  0.172039
   51.1948  0.172740
   51.7931  0.173444
   52.3983  0.174706
   53.0107  0.176677
   53.6302  0.179289
   54.2569  0.182679
   54.8909  0.184937
   55.5324  0.188344
   56.1814  0.192019
   56.8379  0.196709
   57.5021  0.200812
   58.1741  0.204570
   58.8539  0.208985
   59.5417  0.212819
   60.2375  0.215927
   60.9414  0.219054
   61.6536  0.222210
   62.3741  0.224208
   63.1030  0.227344
   63.8404  0.229295
   64.5864  0.231979
   65.3412  0.233947
   66.1048  0.237116
   66.8773  0.239446
   67.6588  0.242249
   68.4495  0.245320
   69.2494  0.248605
   70.0586  0.253464
   70.8773  0.256901
   71.7056  0.259863
   72.5436  0.262861
   73.3913  0.266025
   74.2490  0.268888
   75.1166  0.271621
   75.9944  0.273856
   76.8825  0.275836
   77.7810  0.277753
   78.6899  0.279508
   79.6095  0.281419
   80.5398  0.282987
   81.4810  0.284644
   82.4332  0.286733
   83.3965  0.288971
   84.3711  0.292003
   85.3571  0.295211
   86.3545  0.298457
   87.3637  0.302151
   88.3846  0.305974
   89.4175  0.309899
   90.4624  0.313907
   91.5196  0.317980
   92.5891  0.322107
   93.6711  0.326230
   94.7657  0.330126
   95.8732  0.334050
   96.9935  0.338018
   98.1270  0.341112
   99.2737  0.345568
   100.434  0.349873
   101.608  0.354186
   102.795  0.358127
   103.996  0.361643
   105.211  0.367327
   106.441  0.371350
   107.685  0.370153
   108.943  0.361975
   110.216  0.338745
   111.504  0.284421
   112.807  2.665606E-02
   114.126  1.769961E-02
   115.459  1.948087E-02
   116.809  1.784537E-02
   118.174  1.310321E-02
   119.555  1.330506E-02
   120.952  1.285731E-02
   122.365  1.180374E-02
   123.795  1.157030E-02
   125.242  1.024524E-02
   126.705  1.024215E-02
   128.186  1.292689E-02
   129.684  1.688351E-02
   131.200  2.154604E-02
   132.733  2.377897E-02
   134.284  2.414948E-02
   135.853  2.442970E-02
   137.441  2.506310E-02
   139.047  2.582853E-02
   140.672  2.599212E-02
   142.316  2.587189E-02
   143.979  2.612817E-02
   145.661  2.656529E-02
   147.364  2.673557E-02
   149.086  2.669002E-02
   150.828  2.676673E-02
   152.590  2.690415E-02
   154.374  2.684609E-02
   156.178  2.652317E-02
   158.003  2.622859E-02
   159.849  2.646037E-02
   161.717  2.710497E-02
   163.607  2.865375E-02
   165.519  3.071796E-02
   167.453  3.281120E-02
   169.410  3.479586E-02
   171.390  3.597569E-02
   173.393  3.732925E-02
   175.419  3.859047E-02
   177.469  4.042722E-02
   179.543  4.234481E-02
   181.641  4.321340E-02
   183.764  4.425077E-02
   185.911  4.513307E-02
   188.084  4.614268E-02
   190.282  4.656941E-02
   192.505  4.743798E-02
   194.755  4.871537E-02
   197.031  4.965983E-02
   199.333  5.045833E-02
   201.663  5.145373E-02
   204.019  5.215839E-02
   206.403  5.327345E-02
   208.816  5.475736E-02
   211.256  5.617709E-02
   213.724  5.788825E-02
   216.222  5.934808E-02
   218.749  6.110045E-02
   221.305  6.253136E-02
   223.891  6.443440E-02
   226.508  6.592977E-02
   229.155  6.871383E-02
   231.833  7.160167E-02
   234.542  7.451657E-02
   237.283  7.676952E-02
   240.056  7.885244E-02
   242.861  8.114544E-02
   245.699  8.350535E-02
   248.570  8.466367E-02
   251.475  8.632477E-02
   254.414  8.901664E-02
   257.387  9.180730E-02
   260.395  9.468517E-02
   263.438  9.765410E-02
   266.516  0.100716
   269.631  0.103874
   272.782  0.107131
   275.969  0.110490
   279.194  0.113954
   282.457  0.117527
   285.758  0.121211
   289.097  0.125011
   292.476  0.128931
   295.894  0.132974
   299.351  0.137143
   302.850  0.141443
   306.389  0.145878
   309.969  0.150451
   313.592  0.155168
   317.256  0.159975
   320.964  0.164897
   324.714  0.169972
   328.509  0.175201
   332.348  0.180592
   336.232  0.186148
   340.161  0.191876
   344.136  0.197780
   348.158  0.203866
   352.226  0.210138
   356.342  0.216604
   360.507  0.223269
   364.720  0.230139
   368.982  0.237220
   373.294  0.244519
   377.656  0.252043
   382.069  0.259799
   386.534  0.267793
   391.051  0.276284
   395.621  0.285162
   400.244  0.294325
   404.922  0.304059
   409.654  0.314136
   414.441  0.324548
   419.284  0.335304
   424.184  0.346418
   429.141  0.357900
   434.156  0.369761
   439.229  0.382017
   444.362  0.394678
   449.555  0.407759
   454.808  0.421274
   460.123  0.435236
   465.500  0.449662
   470.940  0.464565
   476.444  0.479963
   482.011  0.495871
   487.644  0.512306
   493.343  0.529286
   499.108  0.546829
   504.941  0.564952
   510.841  0.583677
   516.811  0.603022
   522.851  0.623009
   528.961  0.643657
   535.142  0.664990
   541.396  0.687032
   547.723  0.709803
   554.123  0.733327
   560.599  0.757631
   567.150  0.783329
   573.778  0.809945
   580.483  0.837464
   587.266  0.865917
   594.129  0.895338
   601.072  0.925760
   608.096  0.957215
   615.203  0.989737
   622.392  1.02337
   629.665  1.05814
   637.024  1.09409
   644.468  1.13323
   651.999  1.17405
   659.618  1.21634
   667.327  1.26015
   675.125  1.30371
   683.015  1.34718
   690.996  1.39041
   699.071  1.43503
   707.241  1.48294
   715.506  1.53377
   723.867  1.58635
   732.326  1.64157
   740.884  1.69888
   749.542  1.75820
   758.301  1.81959
   767.163  1.88312
   776.128  1.94887
   785.198  2.01692
   794.374  2.08734
   803.657  2.16022
   813.048  2.23564
   822.550  2.31369
   832.162  2.39448
   841.887  2.47810
   851.725  2.56461
   861.678  2.65415
   871.748  2.74682
   881.935  2.84258
   892.242  2.94125
   902.668  3.04333
   913.217  3.14897
   923.889  3.25829
   934.686  3.37137
   945.608  3.48967
   956.659  3.61259
   967.838  3.73984
   979.148  3.87154
   990.591  4.00791
   1002.17  4.14909
   1013.88  4.29521
   1025.73  4.44649
   1037.71  4.60310
   1049.84  4.76523
   1062.11  4.93312
   1074.52  5.10688
   1087.08  5.28674
   1099.78  5.47295
   1112.63  5.66566
   1125.64  5.86520
   1138.79  6.07181
   1152.10  6.28569
   1165.56  6.50709
   1179.18  6.73626
   1192.96  6.97345
   1206.90  7.21906
   1221.01  7.47334
   1235.28  7.73656
   1249.71  8.00902
   1264.31  8.29111
   1279.09  8.58312
   1294.04  8.88540
   1309.16  9.19834
   1324.46  9.52229
   1339.94  9.85766
   1355.59  10.2048
   1371.44  10.5645
   1387.46  10.9369
   1403.68  11.3225
   1420.08  11.7216
   1436.68  12.1347
   1453.46  12.5625
   1470.45  13.0054
   1487.63  13.4637
   1505.02  13.9382
   1522.61  14.4328
   1540.40  14.9527
   1558.40  15.4911
   1576.61  16.0489
   1595.04  16.6268
   1613.68  17.2255
   1632.53  17.8457
   1651.61  18.4882
   1670.91  19.1539
   1690.44  19.8437
   1710.19  20.5582
   1730.18  21.2983
   1750.40  22.0651
   1770.85  22.8595
   1791.55  23.6825
   1812.48  24.5350
   1833.66  25.4182
   1855.09  26.3331
   1876.77  27.2810
   1898.70  28.2630
   1920.89  29.2802
   1943.34  30.3340
   1966.05  31.4257
   1989.02  32.5567
   2012.27  33.7285
   2035.78  34.9536
   2059.57  36.2376
   2083.64  37.5689
   2107.99  38.9488
   2132.62  40.3793
   2157.55  41.8625
   2182.76  43.3999
   2208.27  44.9937
   2234.07  46.6460
   2260.18  48.3586
   2286.59  50.1346
   2313.31  51.9753
   2340.35  53.8831
   2367.70  55.8613
   2395.37  57.9118
   2423.36  60.0372
   2451.68  62.2405
   2480.33  64.5246
   2509.31  66.8922
   2538.64  69.3465
   2568.30  71.8902
   2598.32  74.5271
   2628.68  77.2606
   2659.40  80.0942
   2690.48  83.0310
   2721.92  86.0752
   2753.73  89.2309
   2785.91  92.5016
   2818.46  95.8915
   2851.40  99.4050
   2884.72  103.047
   2918.43  106.821
   2952.54  110.733
   2987.04  114.787
   3021.95  118.991
   3057.26  123.424
   3092.99  128.029
   3129.14  132.803
   3165.70  137.756
   3202.70  142.892
   3240.12  148.217
   3277.99  153.740
   3316.29  159.467
   3355.05  165.406
   3394.26  171.566
   3433.92  177.952
   3474.05  184.574
   3514.65  191.441
   3555.72  198.562
   3597.27  205.944
   3639.31  213.597
   3681.84  221.532
   3724.87  229.760
   3768.40  238.289
   3812.43  247.131
   3856.99  256.297
   3902.06  265.798
   3947.66  275.647
   3993.79  285.856
   4040.46  296.441
   4087.68  307.412
   4135.45  318.875
   4183.77  330.804
   4232.67  343.170
   4282.13  355.992
   4332.17  369.284
   4382.80  383.062
   4434.01  397.346
   4485.83  412.151
   4538.25  427.495
   4591.29  443.399
   4644.94  459.882
   4699.22  476.961
   4754.14  494.659
   4809.69  512.996
   4865.90  531.996
   4922.76  551.680
   4980.29  572.071
   5038.49  593.194
   5097.37  615.076
   5156.94  637.737
   5217.20  661.202
   5278.17  685.715
   5339.85  711.110
   5402.25  737.408
   5465.38  764.644
   5529.25  792.839
   5593.87  822.026
   5659.24  852.240
   5725.37  883.511
   5792.28  915.870
   5859.97  949.352
   5928.45  983.995
   5997.73  1019.82
   6067.82  1056.89
   6138.73  1095.23
   6210.46  1134.86
   6283.04  1175.84
   6356.46  1218.31
   6430.75  1262.38
   6505.90  1307.94
   6581.92  1355.00
   6658.84  1403.61
   6736.66  1453.82
   6815.38  1505.66
   6895.02  1559.18
   6975.60  1614.41
   7057.12  1671.40
   7139.59  1730.18
   7223.02  1790.80
   7307.43  1853.29
   7392.82  1917.69
   7479.22  1984.05
   7566.62  2052.38
   7655.04  2122.75
   7744.50  2195.19
   7835.00  2269.72
   7926.56  2346.38
   8019.19  2425.21
   8112.91  2506.36
   8207.71  2589.75
   8303.63  2675.38
   8400.67  2763.96
   8498.84  2854.94
   8598.15  2948.28
   8698.63  3044.01
   8800.29  3142.14
   8903.13  3242.69
   9007.17  3345.65
   9112.43  3451.02
   9218.91  3558.81
   9326.65  3669.01
   9435.64  3781.61
   9545.90  3896.60
   9657.46  4013.94
   9770.32  4133.62
   9884.49  4255.61
   10000.0  4379.87
