 Be Density=7.048, Angle=90.deg
 Photon Energy (eV), Atten Length (microns)
   30.0000  3.071515E-02
   30.3506  3.200928E-02
   30.7053  3.335774E-02
   31.0641  3.476311E-02
   31.4271  3.622770E-02
   31.7944  3.775404E-02
   32.1659  3.934458E-02
   32.5418  4.100221E-02
   32.9221  4.272972E-02
   33.3068  4.453002E-02
   33.6960  4.640615E-02
   34.0898  4.815501E-02
   34.4882  4.976388E-02
   34.8912  5.118997E-02
   35.2990  5.265680E-02
   35.7115  5.416567E-02
   36.1288  5.571793E-02
   36.5510  5.731466E-02
   36.9781  5.895704E-02
   37.4103  6.064650E-02
   37.8474  6.238461E-02
   38.2897  6.417225E-02
   38.7372  6.601115E-02
   39.1899  6.738285E-02
   39.6478  6.823888E-02
   40.1112  6.956948E-02
   40.5799  7.066188E-02
   41.0541  7.188217E-02
   41.5339  7.355651E-02
   42.0192  7.494113E-02
   42.5103  7.654849E-02
   43.0071  7.782073E-02
   43.5096  7.948826E-02
   44.0181  8.084010E-02
   44.5325  8.259571E-02
   45.0529  8.432422E-02
   45.5794  8.625580E-02
   46.1120  8.820013E-02
   46.6509  8.989973E-02
   47.1961  9.159921E-02
   47.7476  9.327812E-02
   48.3056  9.465768E-02
   48.8701  9.539834E-02
   49.4412  9.728680E-02
   50.0190  9.840863E-02
   50.6035  9.880988E-02
   51.1948  9.921271E-02
   51.7931  9.961704E-02
   52.3983  0.100342
   53.0107  0.101474
   53.6302  0.102974
   54.2569  0.104921
   54.8909  0.106218
   55.5324  0.108175
   56.1814  0.110286
   56.8379  0.112979
   57.5021  0.115336
   58.1741  0.117494
   58.8539  0.120030
   59.5417  0.122232
   60.2375  0.124017
   60.9414  0.125813
   61.6536  0.127626
   62.3741  0.128773
   63.1030  0.130574
   63.8404  0.131695
   64.5864  0.133237
   65.3412  0.134367
   66.1048  0.136187
   66.8773  0.137525
   67.6588  0.139135
   68.4495  0.140899
   69.2494  0.142786
   70.0586  0.145577
   70.8773  0.147550
   71.7056  0.149252
   72.5436  0.150973
   73.3913  0.152791
   74.2490  0.154435
   75.1166  0.156005
   75.9944  0.157288
   76.8825  0.158426
   77.7810  0.159527
   78.6899  0.160535
   79.6095  0.161632
   80.5398  0.162533
   81.4810  0.163485
   82.4332  0.164684
   83.3965  0.165970
   84.3711  0.167711
   85.3571  0.169553
   86.3545  0.171418
   87.3637  0.173539
   88.3846  0.175736
   89.4175  0.177989
   90.4624  0.180292
   91.5196  0.182631
   92.5891  0.185001
   93.6711  0.187369
   94.7657  0.189607
   95.8732  0.191861
   96.9935  0.194140
   98.1270  0.195917
   99.2737  0.198476
   100.434  0.200948
   101.608  0.203426
   102.795  0.205689
   103.996  0.207708
   105.211  0.210973
   106.441  0.213284
   107.685  0.212596
   108.943  0.207899
   110.216  0.194557
   111.504  0.163357
   112.807  1.530983E-02
   114.126  1.016572E-02
   115.459  1.118878E-02
   116.809  1.024944E-02
   118.174  7.525793E-03
   119.555  7.641726E-03
   120.952  7.384562E-03
   122.365  6.779448E-03
   123.795  6.645372E-03
   125.242  5.884328E-03
   126.705  5.882550E-03
   128.186  7.424523E-03
   129.684  9.697000E-03
   131.200  1.237491E-02
   132.733  1.365739E-02
   134.284  1.387019E-02
   135.853  1.403113E-02
   137.441  1.439492E-02
   139.047  1.483455E-02
   140.672  1.492850E-02
   142.316  1.485945E-02
   143.979  1.500664E-02
   145.661  1.525771E-02
   147.364  1.535550E-02
   149.086  1.532934E-02
   150.828  1.537340E-02
   152.590  1.545233E-02
   154.374  1.541898E-02
   156.178  1.523351E-02
   158.003  1.506432E-02
   159.849  1.519744E-02
   161.717  1.556766E-02
   163.607  1.645720E-02
   165.519  1.764278E-02
   167.453  1.884502E-02
   169.410  1.998491E-02
   171.390  2.066254E-02
   173.393  2.143995E-02
   175.419  2.216433E-02
   177.469  2.321926E-02
   179.543  2.432063E-02
   181.641  2.481950E-02
   183.764  2.541531E-02
   185.911  2.592206E-02
   188.084  2.650192E-02
   190.282  2.674701E-02
   192.505  2.724587E-02
   194.755  2.797954E-02
   197.031  2.852198E-02
   199.333  2.898060E-02
   201.663  2.955231E-02
   204.019  2.995704E-02
   206.403  3.059746E-02
   208.816  3.144974E-02
   211.256  3.226516E-02
   213.724  3.324796E-02
   216.222  3.408641E-02
   218.749  3.509288E-02
   221.305  3.591472E-02
   223.891  3.700773E-02
   226.508  3.786658E-02
   229.155  3.946560E-02
   231.833  4.112422E-02
   234.542  4.279839E-02
   237.283  4.409236E-02
   240.056  4.528869E-02
   242.861  4.660566E-02
   245.699  4.796107E-02
   248.570  4.862636E-02
   251.475  4.958040E-02
   254.414  5.112647E-02
   257.387  5.272927E-02
   260.395  5.438217E-02
   263.438  5.608737E-02
   266.516  5.784595E-02
   269.631  5.965962E-02
   272.782  6.153015E-02
   275.969  6.345955E-02
   279.194  6.544922E-02
   282.457  6.750116E-02
   285.758  6.961744E-02
   289.097  7.179997E-02
   292.476  7.405121E-02
   295.894  7.637321E-02
   299.351  7.876761E-02
   302.850  8.123747E-02
   306.389  8.378454E-02
   309.969  8.641100E-02
   313.592  8.912060E-02
   317.256  9.188124E-02
   320.964  9.470833E-02
   324.714  9.762292E-02
   328.509  0.100626
   332.348  0.103722
   336.232  0.106914
   340.161  0.110203
   344.136  0.113594
   348.158  0.117090
   352.226  0.120692
   356.342  0.124406
   360.507  0.128234
   364.720  0.132180
   368.982  0.136247
   373.294  0.140439
   377.656  0.144760
   382.069  0.149215
   386.534  0.153806
   391.051  0.158683
   395.621  0.163782
   400.244  0.169045
   404.922  0.174635
   409.654  0.180423
   414.441  0.186403
   419.284  0.192581
   424.184  0.198964
   429.141  0.205559
   434.156  0.212371
   439.229  0.219410
   444.362  0.226682
   449.555  0.234196
   454.808  0.241957
   460.123  0.249977
   465.500  0.258262
   470.940  0.266822
   476.444  0.275666
   482.011  0.284802
   487.644  0.294241
   493.343  0.303994
   499.108  0.314069
   504.941  0.324479
   510.841  0.335234
   516.811  0.346344
   522.851  0.357823
   528.961  0.369683
   535.142  0.381935
   541.396  0.394595
   547.723  0.407673
   554.123  0.421185
   560.599  0.435143
   567.150  0.449903
   573.778  0.465190
   580.483  0.480995
   587.266  0.497337
   594.129  0.514235
   601.072  0.531708
   608.096  0.549774
   615.203  0.568453
   622.392  0.587767
   629.665  0.607737
   637.024  0.628386
   644.468  0.650866
   651.999  0.674311
   659.618  0.698599
   667.327  0.723761
   675.125  0.748780
   683.015  0.773752
   690.996  0.798578
   699.071  0.824205
   707.241  0.851723
   715.506  0.880917
   723.867  0.911116
   732.326  0.942829
   740.884  0.975747
   749.542  1.00982
   758.301  1.04508
   767.163  1.08157
   776.128  1.11933
   785.198  1.15841
   794.374  1.19886
   803.657  1.24071
   813.048  1.28403
   822.550  1.32886
   832.162  1.37527
   841.887  1.42329
   851.725  1.47298
   861.678  1.52441
   871.748  1.57763
   881.935  1.63263
   892.242  1.68930
   902.668  1.74793
   913.217  1.80860
   923.889  1.87139
   934.686  1.93634
   945.608  2.00428
   956.659  2.07488
   967.838  2.14796
   979.148  2.22361
   990.591  2.30193
   1002.17  2.38302
   1013.88  2.46694
   1025.73  2.55383
   1037.71  2.64378
   1049.84  2.73690
   1062.11  2.83332
   1074.52  2.93312
   1087.08  3.03643
   1099.78  3.14337
   1112.63  3.25406
   1125.64  3.36866
   1138.79  3.48733
   1152.10  3.61017
   1165.56  3.73733
   1179.18  3.86895
   1192.96  4.00518
   1206.90  4.14625
   1221.01  4.29229
   1235.28  4.44347
   1249.71  4.59996
   1264.31  4.76198
   1279.09  4.92969
   1294.04  5.10330
   1309.16  5.28304
   1324.46  5.46910
   1339.94  5.66172
   1355.59  5.86113
   1371.44  6.06769
   1387.46  6.28159
   1403.68  6.50305
   1420.08  6.73228
   1436.68  6.96955
   1453.46  7.21522
   1470.45  7.46959
   1487.63  7.73284
   1505.02  8.00539
   1522.61  8.28946
   1540.40  8.58803
   1558.40  8.89726
   1576.61  9.21764
   1595.04  9.54956
   1613.68  9.89340
   1632.53  10.2496
   1651.61  10.6186
   1670.91  11.0010
   1690.44  11.3972
   1710.19  11.8075
   1730.18  12.2326
   1750.40  12.6730
   1770.85  13.1293
   1791.55  13.6020
   1812.48  14.0916
   1833.66  14.5989
   1855.09  15.1244
   1876.77  15.6688
   1898.70  16.2328
   1920.89  16.8170
   1943.34  17.4223
   1966.05  18.0493
   1989.02  18.6989
   2012.27  19.3719
   2035.78  20.0755
   2059.57  20.8130
   2083.64  21.5776
   2107.99  22.3701
   2132.62  23.1918
   2157.55  24.0436
   2182.76  24.9266
   2208.27  25.8420
   2234.07  26.7910
   2260.18  27.7747
   2286.59  28.7946
   2313.31  29.8519
   2340.35  30.9476
   2367.70  32.0838
   2395.37  33.2615
   2423.36  34.4822
   2451.68  35.7477
   2480.33  37.0595
   2509.31  38.4194
   2538.64  39.8290
   2568.30  41.2899
   2598.32  42.8044
   2628.68  44.3744
   2659.40  46.0019
   2690.48  47.6886
   2721.92  49.4371
   2753.73  51.2495
   2785.91  53.1280
   2818.46  55.0750
   2851.40  57.0930
   2884.72  59.1847
   2918.43  61.3524
   2952.54  63.5992
   2987.04  65.9279
   3021.95  68.3419
   3057.26  70.8884
   3092.99  73.5329
   3129.14  76.2753
   3165.70  79.1199
   3202.70  82.0696
   3240.12  85.1282
   3277.99  88.3001
   3316.29  91.5895
   3355.05  95.0006
   3394.26  98.5382
   3433.92  102.206
   3474.05  106.010
   3514.65  109.954
   3555.72  114.043
   3597.27  118.283
   3639.31  122.679
   3681.84  127.237
   3724.87  131.962
   3768.40  136.861
   3812.43  141.939
   3856.99  147.203
   3902.06  152.660
   3947.66  158.317
   3993.79  164.180
   4040.46  170.260
   4087.68  176.561
   4135.45  183.145
   4183.77  189.996
   4232.67  197.099
   4282.13  204.463
   4332.17  212.097
   4382.80  220.011
   4434.01  228.214
   4485.83  236.718
   4538.25  245.531
   4591.29  254.665
   4644.94  264.132
   4699.22  273.941
   4754.14  284.106
   4809.69  294.638
   4865.90  305.550
   4922.76  316.856
   4980.29  328.568
   5038.49  340.700
   5097.37  353.267
   5156.94  366.282
   5217.20  379.759
   5278.17  393.839
   5339.85  408.424
   5402.25  423.529
   5465.38  439.171
   5529.25  455.365
   5593.87  472.128
   5659.24  489.482
   5725.37  507.443
   5792.28  526.027
   5859.97  545.258
   5928.45  565.155
   5997.73  585.733
   6067.82  607.025
   6138.73  629.042
   6210.46  651.805
   6283.04  675.339
   6356.46  699.731
   6430.75  725.047
   6505.90  751.210
   6581.92  778.240
   6658.84  806.163
   6736.66  834.999
   6815.38  864.774
   6895.02  895.513
   6975.60  927.234
   7057.12  959.962
   7139.59  993.726
   7223.02  1028.54
   7307.43  1064.43
   7392.82  1101.42
   7479.22  1139.53
   7566.62  1178.78
   7655.04  1219.20
   7744.50  1260.80
   7835.00  1303.61
   7926.56  1347.63
   8019.19  1392.91
   8112.91  1439.52
   8207.71  1487.41
   8303.63  1536.60
   8400.67  1587.47
   8498.84  1639.73
   8598.15  1693.34
   8698.63  1748.32
   8800.29  1804.68
   8903.13  1862.43
   9007.17  1921.57
   9112.43  1982.08
   9218.91  2043.99
   9326.65  2107.29
   9435.64  2171.96
   9545.90  2238.00
   9657.46  2305.39
   9770.32  2374.13
   9884.49  2444.20
   10000.0  2515.57
