 Be Density=1.448, Angle=90.deg
 Photon Energy (eV), Atten Length (microns)
   30.0000  0.149503
   30.3506  0.155802
   30.7053  0.162366
   31.0641  0.169206
   31.4271  0.176335
   31.7944  0.183764
   32.1659  0.191506
   32.5418  0.199574
   32.9221  0.207983
   33.3068  0.216746
   33.6960  0.225877
   34.0898  0.234390
   34.4882  0.242221
   34.8912  0.249162
   35.2990  0.256302
   35.7115  0.263646
   36.1288  0.271202
   36.5510  0.278974
   36.9781  0.286968
   37.4103  0.295191
   37.8474  0.303651
   38.2897  0.312352
   38.7372  0.321303
   39.1899  0.327980
   39.6478  0.332146
   40.1112  0.338623
   40.5799  0.343940
   41.0541  0.349880
   41.5339  0.358029
   42.0192  0.364769
   42.5103  0.372592
   43.0071  0.378785
   43.5096  0.386901
   44.0181  0.393481
   44.5325  0.402027
   45.0529  0.410440
   45.5794  0.419842
   46.1120  0.429306
   46.6509  0.437578
   47.1961  0.445850
   47.7476  0.454022
   48.3056  0.460737
   48.8701  0.464342
   49.4412  0.473534
   50.0190  0.478995
   50.6035  0.480948
   51.1948  0.482908
   51.7931  0.484876
   52.3983  0.488405
   53.0107  0.493914
   53.6302  0.501217
   54.2569  0.510695
   54.8909  0.517007
   55.5324  0.526530
   56.1814  0.536804
   56.8379  0.549915
   57.5021  0.561387
   58.1741  0.571892
   58.8539  0.584235
   59.5417  0.594953
   60.2375  0.603642
   60.9414  0.612384
   61.6536  0.621206
   62.3741  0.626792
   63.1030  0.635558
   63.8404  0.641012
   64.5864  0.648517
   65.3412  0.654018
   66.1048  0.662876
   66.8773  0.669390
   67.6588  0.677228
   68.4495  0.685813
   69.2494  0.694996
   70.0586  0.708580
   70.8773  0.718186
   71.7056  0.726469
   72.5436  0.734849
   73.3913  0.743693
   74.2490  0.751697
   75.1166  0.759340
   75.9944  0.765586
   76.8825  0.771123
   77.7810  0.776481
   78.6899  0.781387
   79.6095  0.786729
   80.5398  0.791112
   81.4810  0.795746
   82.4332  0.801586
   83.3965  0.807841
   84.3711  0.816319
   85.3571  0.825285
   86.3545  0.834361
   87.3637  0.844687
   88.3846  0.855376
   89.4175  0.866347
   90.4624  0.877553
   91.5196  0.888938
   92.5891  0.900476
   93.6711  0.912002
   94.7657  0.922893
   95.8732  0.933864
   96.9935  0.944956
   98.1270  0.953605
   99.2737  0.966063
   100.434  0.978097
   101.608  0.990154
   102.795  1.00117
   103.996  1.01100
   105.211  1.02689
   106.441  1.03814
   107.685  1.03479
   108.943  1.01193
   110.216  0.946988
   111.504  0.795122
   112.807  7.451913E-02
   114.126  4.948067E-02
   115.459  5.446032E-02
   116.809  4.988815E-02
   118.174  3.663107E-02
   119.555  3.719536E-02
   120.952  3.594365E-02
   122.365  3.299831E-02
   123.795  3.234570E-02
   125.242  2.864140E-02
   126.705  2.863274E-02
   128.186  3.613815E-02
   129.684  4.719921E-02
   131.200  6.023368E-02
   132.733  6.647600E-02
   134.284  6.751181E-02
   135.853  6.829520E-02
   137.441  7.006589E-02
   139.047  7.220573E-02
   140.672  7.266305E-02
   142.316  7.232695E-02
   143.979  7.304338E-02
   145.661  7.426541E-02
   147.364  7.474142E-02
   149.086  7.461409E-02
   150.828  7.482854E-02
   152.590  7.521272E-02
   154.374  7.505041E-02
   156.178  7.414763E-02
   158.003  7.332414E-02
   159.849  7.397208E-02
   161.717  7.577411E-02
   163.607  8.010384E-02
   165.519  8.587451E-02
   167.453  9.172633E-02
   169.410  9.727461E-02
   171.390  0.100573
   173.393  0.104357
   175.419  0.107883
   177.469  0.113018
   179.543  0.118378
   181.641  0.120807
   183.764  0.123707
   185.911  0.126173
   188.084  0.128996
   190.282  0.130189
   192.505  0.132617
   194.755  0.136188
   197.031  0.138828
   199.333  0.141060
   201.663  0.143843
   204.019  0.145813
   206.403  0.148930
   208.816  0.153079
   211.256  0.157048
   213.724  0.161831
   216.222  0.165912
   218.749  0.170811
   221.305  0.174811
   223.891  0.180132
   226.508  0.184312
   229.155  0.192095
   231.833  0.200168
   234.542  0.208317
   237.283  0.214615
   240.056  0.220438
   242.861  0.226849
   245.699  0.233446
   248.570  0.236684
   251.475  0.241328
   254.414  0.248853
   257.387  0.256655
   260.395  0.264700
   263.438  0.273000
   266.516  0.281560
   269.631  0.290387
   272.782  0.299492
   275.969  0.308883
   279.194  0.318568
   282.457  0.328555
   285.758  0.338856
   289.097  0.349479
   292.476  0.360437
   295.894  0.371739
   299.351  0.383394
   302.850  0.395416
   306.389  0.407813
   309.969  0.420597
   313.592  0.433786
   317.256  0.447223
   320.964  0.460984
   324.714  0.475170
   328.509  0.489788
   332.348  0.504858
   336.232  0.520393
   340.161  0.536404
   344.136  0.552910
   348.158  0.569923
   352.226  0.587458
   356.342  0.605533
   360.507  0.624166
   364.720  0.643372
   368.982  0.663167
   373.294  0.683573
   377.656  0.704607
   382.069  0.726288
   386.534  0.748636
   391.051  0.772375
   395.621  0.797193
   400.244  0.822808
   404.922  0.850020
   409.654  0.878192
   414.441  0.907299
   419.284  0.937369
   424.184  0.968439
   429.141  1.00054
   434.156  1.03370
   439.229  1.06796
   444.362  1.10335
   449.555  1.13992
   454.808  1.17770
   460.123  1.21674
   465.500  1.25707
   470.940  1.29873
   476.444  1.34178
   482.011  1.38625
   487.644  1.43219
   493.343  1.47966
   499.108  1.52870
   504.941  1.57937
   510.841  1.63172
   516.811  1.68580
   522.851  1.74167
   528.961  1.79940
   535.142  1.85903
   541.396  1.92065
   547.723  1.98431
   554.123  2.05008
   560.599  2.11802
   567.150  2.18986
   573.778  2.26427
   580.483  2.34120
   587.266  2.42074
   594.129  2.50299
   601.072  2.58804
   608.096  2.67597
   615.203  2.76689
   622.392  2.86090
   629.665  2.95810
   637.024  3.05861
   644.468  3.16803
   651.999  3.28214
   659.618  3.40036
   667.327  3.52284
   675.125  3.64461
   683.015  3.76616
   690.996  3.88700
   699.071  4.01174
   707.241  4.14568
   715.506  4.28778
   723.867  4.43477
   732.326  4.58913
   740.884  4.74935
   749.542  4.91518
   758.301  5.08681
   767.163  5.26441
   776.128  5.44823
   785.198  5.63845
   794.374  5.83533
   803.657  6.03906
   813.048  6.24990
   822.550  6.46811
   832.162  6.69397
   841.887  6.92771
   851.725  7.16958
   861.678  7.41990
   871.748  7.67896
   881.935  7.94665
   892.242  8.22250
   902.668  8.50788
   913.217  8.80321
   923.889  9.10881
   934.686  9.42494
   945.608  9.75564
   956.659  10.0993
   967.838  10.4550
   979.148  10.8232
   990.591  11.2044
   1002.17  11.5991
   1013.88  12.0076
   1025.73  12.4305
   1037.71  12.8683
   1049.84  13.3216
   1062.11  13.7909
   1074.52  14.2767
   1087.08  14.7795
   1099.78  15.3001
   1112.63  15.8388
   1125.64  16.3966
   1138.79  16.9742
   1152.10  17.5721
   1165.56  18.1911
   1179.18  18.8318
   1192.96  19.4948
   1206.90  20.1815
   1221.01  20.8923
   1235.28  21.6282
   1249.71  22.3899
   1264.31  23.1785
   1279.09  23.9948
   1294.04  24.8398
   1309.16  25.7147
   1324.46  26.6203
   1339.94  27.5579
   1355.59  28.5285
   1371.44  29.5339
   1387.46  30.5750
   1403.68  31.6530
   1420.08  32.7687
   1436.68  33.9236
   1453.46  35.1194
   1470.45  36.3575
   1487.63  37.6388
   1505.02  38.9655
   1522.61  40.3481
   1540.40  41.8014
   1558.40  43.3066
   1576.61  44.8660
   1595.04  46.4816
   1613.68  48.1552
   1632.53  49.8890
   1651.61  51.6852
   1670.91  53.5462
   1690.44  55.4746
   1710.19  57.4720
   1730.18  59.5410
   1750.40  61.6847
   1770.85  63.9055
   1791.55  66.2062
   1812.48  68.5896
   1833.66  71.0585
   1855.09  73.6163
   1876.77  76.2662
   1898.70  79.0114
   1920.89  81.8552
   1943.34  84.8012
   1966.05  87.8530
   1989.02  91.0149
   2012.27  94.2907
   2035.78  97.7157
   2059.57  101.305
   2083.64  105.027
   2107.99  108.884
   2132.62  112.884
   2157.55  117.030
   2182.76  121.328
   2208.27  125.784
   2234.07  130.403
   2260.18  135.190
   2286.59  140.155
   2313.31  145.301
   2340.35  150.634
   2367.70  156.165
   2395.37  161.897
   2423.36  167.839
   2451.68  173.998
   2480.33  180.384
   2509.31  187.003
   2538.64  193.864
   2568.30  200.975
   2598.32  208.346
   2628.68  215.988
   2659.40  223.910
   2690.48  232.120
   2721.92  240.630
   2753.73  249.452
   2785.91  258.596
   2818.46  268.072
   2851.40  277.895
   2884.72  288.076
   2918.43  298.627
   2952.54  309.563
   2987.04  320.897
   3021.95  332.648
   3057.26  345.042
   3092.99  357.914
   3129.14  371.263
   3165.70  385.108
   3202.70  399.466
   3240.12  414.353
   3277.99  429.792
   3316.29  445.803
   3355.05  462.406
   3394.26  479.625
   3433.92  497.480
   3474.05  515.993
   3514.65  535.190
   3555.72  555.095
   3597.27  575.732
   3639.31  597.128
   3681.84  619.312
   3724.87  642.311
   3768.40  666.156
   3812.43  690.875
   3856.99  716.498
   3902.06  743.059
   3947.66  770.594
   3993.79  799.133
   4040.46  828.723
   4087.68  859.396
   4135.45  891.442
   4183.77  924.789
   4232.67  959.360
   4282.13  995.204
   4332.17  1032.36
   4382.80  1070.88
   4434.01  1110.81
   4485.83  1152.20
   4538.25  1195.10
   4591.29  1239.56
   4644.94  1285.64
   4699.22  1333.38
   4754.14  1382.86
   4809.69  1434.12
   4865.90  1487.24
   4922.76  1542.27
   4980.29  1599.27
   5038.49  1658.32
   5097.37  1719.49
   5156.94  1782.84
   5217.20  1848.44
   5278.17  1916.97
   5339.85  1987.97
   5402.25  2061.48
   5465.38  2137.62
   5529.25  2216.45
   5593.87  2298.04
   5659.24  2382.50
   5725.37  2469.93
   5792.28  2560.39
   5859.97  2653.99
   5928.45  2750.84
   5997.73  2851.00
   6067.82  2954.63
   6138.73  3061.80
   6210.46  3172.60
   6283.04  3287.15
   6356.46  3405.87
   6430.75  3529.10
   6505.90  3656.44
   6581.92  3788.01
   6658.84  3923.92
   6736.66  4064.28
   6815.38  4209.21
   6895.02  4358.82
   6975.60  4513.22
   7057.12  4672.52
   7139.59  4836.86
   7223.02  5006.33
   7307.43  5181.01
   7392.82  5361.06
   7479.22  5546.56
   7566.62  5737.60
   7655.04  5934.32
   7744.50  6136.84
   7835.00  6345.19
   7926.56  6559.48
   8019.19  6779.87
   8112.91  7006.72
   8207.71  7239.84
   8303.63  7479.24
   8400.67  7726.86
   8498.84  7981.20
   8598.15  8242.16
   8698.63  8509.78
   8800.29  8784.11
   8903.13  9065.19
   9007.17  9353.03
   9112.43  9647.60
   9218.91  9948.92
   9326.65  10257.0
   9435.64  10571.8
   9545.90  10893.2
   9657.46  11221.3
   9770.32  11555.9
   9884.49  11896.9
   10000.0  12244.3
