 Be Density=8.048, Angle=90.deg
 Photon Energy (eV), Atten Length (microns)
   30.0000  2.689865E-02
   30.3506  2.803198E-02
   30.7053  2.921289E-02
   31.0641  3.044363E-02
   31.4271  3.172624E-02
   31.7944  3.306293E-02
   32.1659  3.445584E-02
   32.5418  3.590750E-02
   32.9221  3.742036E-02
   33.3068  3.899696E-02
   33.6960  4.063998E-02
   34.0898  4.217154E-02
   34.4882  4.358049E-02
   34.8912  4.482938E-02
   35.2990  4.611395E-02
   35.7115  4.743535E-02
   36.1288  4.879472E-02
   36.5510  5.019306E-02
   36.9781  5.163136E-02
   37.4103  5.311091E-02
   37.8474  5.463304E-02
   38.2897  5.619856E-02
   38.7372  5.780895E-02
   39.1899  5.901023E-02
   39.6478  5.975989E-02
   40.1112  6.092516E-02
   40.5799  6.188183E-02
   41.0541  6.295048E-02
   41.5339  6.441679E-02
   42.0192  6.562935E-02
   42.5103  6.703699E-02
   43.0071  6.815115E-02
   43.5096  6.961149E-02
   44.0181  7.079535E-02
   44.5325  7.233282E-02
   45.0529  7.384655E-02
   45.5794  7.553813E-02
   46.1120  7.724086E-02
   46.6509  7.872928E-02
   47.1961  8.021760E-02
   47.7476  8.168788E-02
   48.3056  8.289605E-02
   48.8701  8.354467E-02
   49.4412  8.519847E-02
   50.0190  8.618091E-02
   50.6035  8.653231E-02
   51.1948  8.688508E-02
   51.7931  8.723918E-02
   52.3983  8.787409E-02
   53.0107  8.886526E-02
   53.6302  9.017914E-02
   54.2569  9.188446E-02
   54.8909  9.302005E-02
   55.5324  9.473360E-02
   56.1814  9.658209E-02
   56.8379  9.894104E-02
   57.5021  0.101005
   58.1741  0.102895
   58.8539  0.105116
   59.5417  0.107044
   60.2375  0.108608
   60.9414  0.110180
   61.6536  0.111768
   62.3741  0.112773
   63.1030  0.114350
   63.8404  0.115331
   64.5864  0.116681
   65.3412  0.117671
   66.1048  0.119265
   66.8773  0.120437
   67.6588  0.121847
   68.4495  0.123392
   69.2494  0.125044
   70.0586  0.127488
   70.8773  0.129216
   71.7056  0.130707
   72.5436  0.132214
   73.3913  0.133806
   74.2490  0.135246
   75.1166  0.136621
   75.9944  0.137744
   76.8825  0.138741
   77.7810  0.139705
   78.6899  0.140588
   79.6095  0.141549
   80.5398  0.142337
   81.4810  0.143171
   82.4332  0.144222
   83.3965  0.145347
   84.3711  0.146872
   85.3571  0.148486
   86.3545  0.150119
   87.3637  0.151976
   88.3846  0.153900
   89.4175  0.155873
   90.4624  0.157890
   91.5196  0.159938
   92.5891  0.162014
   93.6711  0.164088
   94.7657  0.166047
   95.8732  0.168021
   96.9935  0.170017
   98.1270  0.171573
   99.2737  0.173815
   100.434  0.175980
   101.608  0.178149
   102.795  0.180132
   103.996  0.181900
   105.211  0.184759
   106.441  0.186782
   107.685  0.186180
   108.943  0.182067
   110.216  0.170383
   111.504  0.143059
   112.807  1.340752E-02
   114.126  8.902584E-03
   115.459  9.798526E-03
   116.809  8.975900E-03
   118.174  6.590679E-03
   119.555  6.692207E-03
   120.952  6.466998E-03
   122.365  5.937071E-03
   123.795  5.819655E-03
   125.242  5.153173E-03
   126.705  5.151616E-03
   128.186  6.501992E-03
   129.684  8.492103E-03
   131.200  1.083727E-02
   132.733  1.196039E-02
   134.284  1.214676E-02
   135.853  1.228770E-02
   137.441  1.260629E-02
   139.047  1.299129E-02
   140.672  1.307357E-02
   142.316  1.301310E-02
   143.979  1.314200E-02
   145.661  1.336187E-02
   147.364  1.344751E-02
   149.086  1.342460E-02
   150.828  1.346318E-02
   152.590  1.353231E-02
   154.374  1.350310E-02
   156.178  1.334068E-02
   158.003  1.319251E-02
   159.849  1.330909E-02
   161.717  1.363331E-02
   163.607  1.441232E-02
   165.519  1.545058E-02
   167.453  1.650344E-02
   169.410  1.750169E-02
   171.390  1.809512E-02
   173.393  1.877594E-02
   175.419  1.941031E-02
   177.469  2.033417E-02
   179.543  2.129868E-02
   181.641  2.173556E-02
   183.764  2.225734E-02
   185.911  2.270113E-02
   188.084  2.320894E-02
   190.282  2.342358E-02
   192.505  2.386045E-02
   194.755  2.450296E-02
   197.031  2.497800E-02
   199.333  2.537964E-02
   201.663  2.588030E-02
   204.019  2.623474E-02
   206.403  2.679559E-02
   208.816  2.754197E-02
   211.256  2.825607E-02
   213.724  2.911675E-02
   216.222  2.985102E-02
   218.749  3.073243E-02
   221.305  3.145215E-02
   223.891  3.240935E-02
   226.508  3.316149E-02
   229.155  3.456182E-02
   231.833  3.601435E-02
   234.542  3.748050E-02
   237.283  3.861369E-02
   240.056  3.966136E-02
   242.861  4.081470E-02
   245.699  4.200169E-02
   248.570  4.258431E-02
   251.475  4.341981E-02
   254.414  4.477377E-02
   257.387  4.617742E-02
   260.395  4.762494E-02
   263.438  4.911826E-02
   266.516  5.065833E-02
   269.631  5.224663E-02
   272.782  5.388475E-02
   275.969  5.557441E-02
   279.194  5.731685E-02
   282.457  5.911383E-02
   285.758  6.096717E-02
   289.097  6.287850E-02
   292.476  6.485001E-02
   295.894  6.688349E-02
   299.351  6.898038E-02
   302.850  7.114335E-02
   306.389  7.337394E-02
   309.969  7.567404E-02
   313.592  7.804695E-02
   317.256  8.046458E-02
   320.964  8.294039E-02
   324.714  8.549283E-02
   328.509  8.812296E-02
   332.348  9.083430E-02
   336.232  9.362929E-02
   340.161  9.651008E-02
   344.136  9.947982E-02
   348.158  0.102541
   352.226  0.105696
   356.342  0.108948
   360.507  0.112300
   364.720  0.115756
   368.982  0.119317
   373.294  0.122989
   377.656  0.126773
   382.069  0.130674
   386.534  0.134695
   391.051  0.138966
   395.621  0.143431
   400.244  0.148040
   404.922  0.152936
   409.654  0.158005
   414.441  0.163242
   419.284  0.168652
   424.184  0.174242
   429.141  0.180017
   434.156  0.185983
   439.229  0.192147
   444.362  0.198516
   449.555  0.205096
   454.808  0.211893
   460.123  0.218916
   465.500  0.226172
   470.940  0.233668
   476.444  0.241413
   482.011  0.249414
   487.644  0.257680
   493.343  0.266222
   499.108  0.275045
   504.941  0.284161
   510.841  0.293579
   516.811  0.303309
   522.851  0.313362
   528.961  0.323748
   535.142  0.334478
   541.396  0.345565
   547.723  0.357018
   554.123  0.368851
   560.599  0.381075
   567.150  0.394001
   573.778  0.407388
   580.483  0.421230
   587.266  0.435541
   594.129  0.450339
   601.072  0.465641
   608.096  0.481462
   615.203  0.497820
   622.392  0.514734
   629.665  0.532223
   637.024  0.550306
   644.468  0.569993
   651.999  0.590525
   659.618  0.611795
   667.327  0.633831
   675.125  0.655741
   683.015  0.677610
   690.996  0.699351
   699.071  0.721794
   707.241  0.745893
   715.506  0.771459
   723.867  0.797906
   732.326  0.825678
   740.884  0.854506
   749.542  0.884342
   758.301  0.915221
   767.163  0.947176
   776.128  0.980247
   785.198  1.01447
   794.374  1.04989
   803.657  1.08655
   813.048  1.12448
   822.550  1.16375
   832.162  1.20438
   841.887  1.24644
   851.725  1.28995
   861.678  1.33499
   871.748  1.38160
   881.935  1.42977
   892.242  1.47940
   902.668  1.53074
   913.217  1.58388
   923.889  1.63886
   934.686  1.69574
   945.608  1.75524
   956.659  1.81707
   967.838  1.88107
   979.148  1.94732
   990.591  2.01591
   1002.17  2.08692
   1013.88  2.16041
   1025.73  2.23650
   1037.71  2.31528
   1049.84  2.39682
   1062.11  2.48127
   1074.52  2.56867
   1087.08  2.65914
   1099.78  2.75279
   1112.63  2.84973
   1125.64  2.95009
   1138.79  3.05401
   1152.10  3.16159
   1165.56  3.27295
   1179.18  3.38822
   1192.96  3.50752
   1206.90  3.63106
   1221.01  3.75895
   1235.28  3.89135
   1249.71  4.02839
   1264.31  4.17028
   1279.09  4.31715
   1294.04  4.46919
   1309.16  4.62660
   1324.46  4.78954
   1339.94  4.95823
   1355.59  5.13285
   1371.44  5.31375
   1387.46  5.50107
   1403.68  5.69502
   1420.08  5.89576
   1436.68  6.10355
   1453.46  6.31870
   1470.45  6.54146
   1487.63  6.77200
   1505.02  7.01068
   1522.61  7.25945
   1540.40  7.52093
   1558.40  7.79174
   1576.61  8.07230
   1595.04  8.36299
   1613.68  8.66410
   1632.53  8.97605
   1651.61  9.29923
   1670.91  9.63406
   1690.44  9.98101
   1710.19  10.3404
   1730.18  10.7126
   1750.40  11.0983
   1770.85  11.4979
   1791.55  11.9118
   1812.48  12.3407
   1833.66  12.7849
   1855.09  13.2451
   1876.77  13.7218
   1898.70  14.2158
   1920.89  14.7274
   1943.34  15.2575
   1966.05  15.8066
   1989.02  16.3755
   2012.27  16.9648
   2035.78  17.5810
   2059.57  18.2269
   2083.64  18.8965
   2107.99  19.5905
   2132.62  20.3101
   2157.55  21.0561
   2182.76  21.8294
   2208.27  22.6310
   2234.07  23.4621
   2260.18  24.3235
   2286.59  25.2168
   2313.31  26.1427
   2340.35  27.1022
   2367.70  28.0972
   2395.37  29.1286
   2423.36  30.1976
   2451.68  31.3059
   2480.33  32.4547
   2509.31  33.6456
   2538.64  34.8800
   2568.30  36.1595
   2598.32  37.4858
   2628.68  38.8607
   2659.40  40.2860
   2690.48  41.7631
   2721.92  43.2943
   2753.73  44.8815
   2785.91  46.5266
   2818.46  48.2317
   2851.40  49.9989
   2884.72  51.8308
   2918.43  53.7291
   2952.54  55.6967
   2987.04  57.7360
   3021.95  59.8501
   3057.26  62.0802
   3092.99  64.3961
   3129.14  66.7978
   3165.70  69.2889
   3202.70  71.8720
   3240.12  74.5507
   3277.99  77.3284
   3316.29  80.2091
   3355.05  83.1964
   3394.26  86.2944
   3433.92  89.5067
   3474.05  92.8376
   3514.65  96.2916
   3555.72  99.8729
   3597.27  103.586
   3639.31  107.435
   3681.84  111.427
   3724.87  115.565
   3768.40  119.855
   3812.43  124.303
   3856.99  128.913
   3902.06  133.691
   3947.66  138.646
   3993.79  143.780
   4040.46  149.104
   4087.68  154.623
   4135.45  160.389
   4183.77  166.388
   4232.67  172.608
   4282.13  179.058
   4332.17  185.743
   4382.80  192.673
   4434.01  199.858
   4485.83  207.304
   4538.25  215.022
   4591.29  223.022
   4644.94  231.312
   4699.22  239.903
   4754.14  248.805
   4809.69  258.028
   4865.90  267.584
   4922.76  277.485
   4980.29  287.742
   5038.49  298.366
   5097.37  309.372
   5156.94  320.770
   5217.20  332.573
   5278.17  344.902
   5339.85  357.676
   5402.25  370.903
   5465.38  384.602
   5529.25  398.784
   5593.87  413.464
   5659.24  428.661
   5725.37  444.390
   5792.28  460.666
   5859.97  477.507
   5928.45  494.932
   5997.73  512.953
   6067.82  531.599
   6138.73  550.881
   6210.46  570.815
   6283.04  591.425
   6356.46  612.786
   6430.75  634.957
   6505.90  657.868
   6581.92  681.540
   6658.84  705.993
   6736.66  731.246
   6815.38  757.322
   6895.02  784.241
   6975.60  812.021
   7057.12  840.682
   7139.59  870.251
   7223.02  900.742
   7307.43  932.170
   7392.82  964.564
   7479.22  997.939
   7566.62  1032.31
   7655.04  1067.71
   7744.50  1104.14
   7835.00  1141.63
   7926.56  1180.19
   8019.19  1219.84
   8112.91  1260.65
   8207.71  1302.60
   8303.63  1345.67
   8400.67  1390.22
   8498.84  1435.98
   8598.15  1482.93
   8698.63  1531.08
   8800.29  1580.44
   8903.13  1631.01
   9007.17  1682.80
   9112.43  1735.80
   9218.91  1790.02
   9326.65  1845.45
   9435.64  1902.08
   9545.90  1959.92
   9657.46  2018.94
   9770.32  2079.14
   9884.49  2140.49
   10000.0  2203.00
