 Be Density=9.048, Angle=90.deg
 Photon Energy (eV), Atten Length (microns)
   30.0000  2.392577E-02
   30.3506  2.493384E-02
   30.7053  2.598423E-02
   31.0641  2.707895E-02
   31.4271  2.821981E-02
   31.7944  2.940876E-02
   32.1659  3.064772E-02
   32.5418  3.193894E-02
   32.9221  3.328460E-02
   33.3068  3.468695E-02
   33.6960  3.614838E-02
   34.0898  3.751067E-02
   34.4882  3.876390E-02
   34.8912  3.987477E-02
   35.2990  4.101736E-02
   35.7115  4.219271E-02
   36.1288  4.340185E-02
   36.5510  4.464564E-02
   36.9781  4.592498E-02
   37.4103  4.724100E-02
   37.8474  4.859490E-02
   38.2897  4.998740E-02
   38.7372  5.141982E-02
   39.1899  5.248832E-02
   39.6478  5.315512E-02
   40.1112  5.419162E-02
   40.5799  5.504255E-02
   41.0541  5.599310E-02
   41.5339  5.729733E-02
   42.0192  5.837589E-02
   42.5103  5.962795E-02
   43.0071  6.061897E-02
   43.5096  6.191790E-02
   44.0181  6.297093E-02
   44.5325  6.433848E-02
   45.0529  6.568491E-02
   45.5794  6.718953E-02
   46.1120  6.870408E-02
   46.6509  7.002800E-02
   47.1961  7.135183E-02
   47.7476  7.265961E-02
   48.3056  7.373422E-02
   48.8701  7.431117E-02
   49.4412  7.578219E-02
   50.0190  7.665606E-02
   50.6035  7.696862E-02
   51.1948  7.728241E-02
   51.7931  7.759736E-02
   52.3983  7.816210E-02
   53.0107  7.904373E-02
   53.6302  8.021238E-02
   54.2569  8.172923E-02
   54.8909  8.273932E-02
   55.5324  8.426349E-02
   56.1814  8.590768E-02
   56.8379  8.800592E-02
   57.5021  8.984172E-02
   58.1741  9.152297E-02
   58.8539  9.349833E-02
   59.5417  9.521355E-02
   60.2375  9.660405E-02
   60.9414  9.800306E-02
   61.6536  9.941486E-02
   62.3741  0.100309
   63.1030  0.101712
   63.8404  0.102585
   64.5864  0.103786
   65.3412  0.104666
   66.1048  0.106084
   66.8773  0.107126
   67.6588  0.108380
   68.4495  0.109754
   69.2494  0.111224
   70.0586  0.113398
   70.8773  0.114935
   71.7056  0.116261
   72.5436  0.117602
   73.3913  0.119017
   74.2490  0.120298
   75.1166  0.121521
   75.9944  0.122521
   76.8825  0.123407
   77.7810  0.124264
   78.6899  0.125050
   79.6095  0.125905
   80.5398  0.126606
   81.4810  0.127347
   82.4332  0.128282
   83.3965  0.129283
   84.3711  0.130640
   85.3571  0.132075
   86.3545  0.133527
   87.3637  0.135180
   88.3846  0.136890
   89.4175  0.138646
   90.4624  0.140439
   91.5196  0.142261
   92.5891  0.144108
   93.6711  0.145953
   94.7657  0.147695
   95.8732  0.149451
   96.9935  0.151226
   98.1270  0.152611
   99.2737  0.154604
   100.434  0.156530
   101.608  0.158460
   102.795  0.160223
   103.996  0.161796
   105.211  0.164339
   106.441  0.166139
   107.685  0.165603
   108.943  0.161945
   110.216  0.151552
   111.504  0.127248
   112.807  1.192570E-02
   114.126  7.918657E-03
   115.459  8.715576E-03
   116.809  7.983869E-03
   118.174  5.862267E-03
   119.555  5.952573E-03
   120.952  5.752253E-03
   122.365  5.280896E-03
   123.795  5.176456E-03
   125.242  4.583636E-03
   126.705  4.582251E-03
   128.186  5.783381E-03
   129.684  7.553542E-03
   131.200  9.639519E-03
   132.733  1.063851E-02
   134.284  1.080428E-02
   135.853  1.092965E-02
   137.441  1.121302E-02
   139.047  1.155547E-02
   140.672  1.162866E-02
   142.316  1.157487E-02
   143.979  1.168952E-02
   145.661  1.188509E-02
   147.364  1.196127E-02
   149.086  1.194089E-02
   150.828  1.197521E-02
   152.590  1.203670E-02
   154.374  1.201072E-02
   156.178  1.186624E-02
   158.003  1.173445E-02
   159.849  1.183815E-02
   161.717  1.212654E-02
   163.607  1.281945E-02
   165.519  1.374296E-02
   167.453  1.467945E-02
   169.410  1.556738E-02
   171.390  1.609522E-02
   173.393  1.670079E-02
   175.419  1.726505E-02
   177.469  1.808680E-02
   179.543  1.894471E-02
   181.641  1.933331E-02
   183.764  1.979742E-02
   185.911  2.019216E-02
   188.084  2.064385E-02
   190.282  2.083476E-02
   192.505  2.122336E-02
   194.755  2.179485E-02
   197.031  2.221739E-02
   199.333  2.257464E-02
   201.663  2.301997E-02
   204.019  2.333523E-02
   206.403  2.383409E-02
   208.816  2.449798E-02
   211.256  2.513316E-02
   213.724  2.589872E-02
   216.222  2.655183E-02
   218.749  2.733583E-02
   221.305  2.797601E-02
   223.891  2.882742E-02
   226.508  2.949643E-02
   229.155  3.074200E-02
   231.833  3.203399E-02
   234.542  3.333810E-02
   237.283  3.434604E-02
   240.056  3.527793E-02
   242.861  3.630379E-02
   245.699  3.735960E-02
   248.570  3.787782E-02
   251.475  3.862098E-02
   254.414  3.982530E-02
   257.387  4.107382E-02
   260.395  4.236135E-02
   263.438  4.368963E-02
   266.516  4.505948E-02
   269.631  4.647226E-02
   272.782  4.792932E-02
   275.969  4.943224E-02
   279.194  5.098210E-02
   282.457  5.258048E-02
   285.758  5.422897E-02
   289.097  5.592906E-02
   292.476  5.768268E-02
   295.894  5.949142E-02
   299.351  6.135655E-02
   302.850  6.328046E-02
   306.389  6.526453E-02
   309.969  6.731042E-02
   313.592  6.942108E-02
   317.256  7.157150E-02
   320.964  7.377369E-02
   324.714  7.604402E-02
   328.509  7.838347E-02
   332.348  8.079515E-02
   336.232  8.328123E-02
   340.161  8.584363E-02
   344.136  8.848515E-02
   348.158  9.120785E-02
   352.226  9.401410E-02
   356.342  9.690672E-02
   360.507  9.988865E-02
   364.720  0.102962
   368.982  0.106130
   373.294  0.109396
   377.656  0.112762
   382.069  0.116232
   386.534  0.119808
   391.051  0.123607
   395.621  0.127579
   400.244  0.131678
   404.922  0.136033
   409.654  0.140542
   414.441  0.145200
   419.284  0.150012
   424.184  0.154984
   429.141  0.160121
   434.156  0.165428
   439.229  0.170911
   444.362  0.176576
   449.555  0.182428
   454.808  0.188474
   460.123  0.194721
   465.500  0.201175
   470.940  0.207843
   476.444  0.214732
   482.011  0.221848
   487.644  0.229201
   493.343  0.236798
   499.108  0.244647
   504.941  0.252755
   510.841  0.261132
   516.811  0.269787
   522.851  0.278729
   528.961  0.287967
   535.142  0.297511
   541.396  0.307372
   547.723  0.317560
   554.123  0.328085
   560.599  0.338958
   567.150  0.350455
   573.778  0.362363
   580.483  0.374675
   587.266  0.387404
   594.129  0.400567
   601.072  0.414177
   608.096  0.428250
   615.203  0.442800
   622.392  0.457845
   629.665  0.473401
   637.024  0.489485
   644.468  0.506997
   651.999  0.525259
   659.618  0.544178
   667.327  0.563779
   675.125  0.583267
   683.015  0.602719
   690.996  0.622058
   699.071  0.642020
   707.241  0.663455
   715.506  0.686196
   723.867  0.709720
   732.326  0.734423
   740.884  0.760065
   749.542  0.786603
   758.301  0.814069
   767.163  0.842493
   776.128  0.871909
   785.198  0.902351
   794.374  0.933858
   803.657  0.966463
   813.048  1.00020
   822.550  1.03513
   832.162  1.07127
   841.887  1.10868
   851.725  1.14739
   861.678  1.18745
   871.748  1.22890
   881.935  1.27175
   892.242  1.31589
   902.668  1.36156
   913.217  1.40882
   923.889  1.45773
   934.686  1.50832
   945.608  1.56125
   956.659  1.61624
   967.838  1.67317
   979.148  1.73210
   990.591  1.79311
   1002.17  1.85627
   1013.88  1.92164
   1025.73  1.98932
   1037.71  2.05939
   1049.84  2.13192
   1062.11  2.20704
   1074.52  2.28478
   1087.08  2.36524
   1099.78  2.44855
   1112.63  2.53477
   1125.64  2.62404
   1138.79  2.71648
   1152.10  2.81216
   1165.56  2.91122
   1179.18  3.01375
   1192.96  3.11986
   1206.90  3.22975
   1221.01  3.34351
   1235.28  3.46127
   1249.71  3.58317
   1264.31  3.70937
   1279.09  3.84002
   1294.04  3.97525
   1309.16  4.11526
   1324.46  4.26019
   1339.94  4.41023
   1355.59  4.56556
   1371.44  4.72647
   1387.46  4.89309
   1403.68  5.06560
   1420.08  5.24415
   1436.68  5.42898
   1453.46  5.62035
   1470.45  5.81849
   1487.63  6.02355
   1505.02  6.23585
   1522.61  6.45713
   1540.40  6.68970
   1558.40  6.93058
   1576.61  7.18014
   1595.04  7.43870
   1613.68  7.70653
   1632.53  7.98400
   1651.61  8.27147
   1670.91  8.56929
   1690.44  8.87789
   1710.19  9.19755
   1730.18  9.52867
   1750.40  9.87173
   1770.85  10.2271
   1791.55  10.5953
   1812.48  10.9768
   1833.66  11.3719
   1855.09  11.7812
   1876.77  12.2053
   1898.70  12.6446
   1920.89  13.0997
   1943.34  13.5712
   1966.05  14.0596
   1989.02  14.5656
   2012.27  15.0898
   2035.78  15.6380
   2059.57  16.2124
   2083.64  16.8080
   2107.99  17.4254
   2132.62  18.0654
   2157.55  18.7290
   2182.76  19.4168
   2208.27  20.1298
   2234.07  20.8690
   2260.18  21.6353
   2286.59  22.4298
   2313.31  23.2533
   2340.35  24.1068
   2367.70  24.9919
   2395.37  25.9093
   2423.36  26.8602
   2451.68  27.8459
   2480.33  28.8678
   2509.31  29.9270
   2538.64  31.0250
   2568.30  32.1631
   2598.32  33.3428
   2628.68  34.5657
   2659.40  35.8335
   2690.48  37.1474
   2721.92  38.5093
   2753.73  39.9212
   2785.91  41.3844
   2818.46  42.9010
   2851.40  44.4730
   2884.72  46.1023
   2918.43  47.7909
   2952.54  49.5410
   2987.04  51.3549
   3021.95  53.2354
   3057.26  55.2190
   3092.99  57.2789
   3129.14  59.4152
   3165.70  61.6309
   3202.70  63.9286
   3240.12  66.3112
   3277.99  68.7820
   3316.29  71.3443
   3355.05  74.0014
   3394.26  76.7570
   3433.92  79.6143
   3474.05  82.5771
   3514.65  85.6493
   3555.72  88.8348
   3597.27  92.1374
   3639.31  95.5615
   3681.84  99.1117
   3724.87  102.793
   3768.40  106.609
   3812.43  110.564
   3856.99  114.665
   3902.06  118.916
   3947.66  123.322
   3993.79  127.889
   4040.46  132.625
   4087.68  137.534
   4135.45  142.662
   4183.77  147.999
   4232.67  153.532
   4282.13  159.268
   4332.17  165.214
   4382.80  171.379
   4434.01  177.769
   4485.83  184.393
   4538.25  191.258
   4591.29  198.373
   4644.94  205.747
   4699.22  213.389
   4754.14  221.306
   4809.69  229.510
   4865.90  238.010
   4922.76  246.817
   4980.29  255.940
   5038.49  265.390
   5097.37  275.180
   5156.94  285.318
   5217.20  295.816
   5278.17  306.783
   5339.85  318.145
   5402.25  329.910
   5465.38  342.096
   5529.25  354.710
   5593.87  367.768
   5659.24  381.285
   5725.37  395.276
   5792.28  409.752
   5859.97  424.732
   5928.45  440.231
   5997.73  456.261
   6067.82  472.846
   6138.73  489.997
   6210.46  507.728
   6283.04  526.059
   6356.46  545.060
   6430.75  564.780
   6505.90  585.160
   6581.92  606.215
   6658.84  627.966
   6736.66  650.428
   6815.38  673.622
   6895.02  697.566
   6975.60  722.275
   7057.12  747.769
   7139.59  774.069
   7223.02  801.190
   7307.43  829.146
   7392.82  857.959
   7479.22  887.645
   7566.62  918.219
   7655.04  949.701
   7744.50  982.111
   7835.00  1015.46
   7926.56  1049.75
   8019.19  1085.02
   8112.91  1121.32
   8207.71  1158.63
   8303.63  1196.94
   8400.67  1236.57
   8498.84  1277.27
   8598.15  1319.04
   8698.63  1361.86
   8800.29  1405.77
   8903.13  1450.75
   9007.17  1496.82
   9112.43  1543.96
   9218.91  1592.18
   9326.65  1641.48
   9435.64  1691.86
   9545.90  1743.30
   9657.46  1795.80
   9770.32  1849.35
   9884.49  1903.92
   10000.0  1959.52
