 Be Density=10.05, Angle=90.deg
 Photon Energy (eV), Atten Length (microns)
   30.0000  2.154462E-02
   30.3506  2.245237E-02
   30.7053  2.339822E-02
   31.0641  2.438399E-02
   31.4271  2.541131E-02
   31.7944  2.648193E-02
   32.1659  2.759759E-02
   32.5418  2.876031E-02
   32.9221  2.997204E-02
   33.3068  3.123483E-02
   33.6960  3.255081E-02
   34.0898  3.377752E-02
   34.4882  3.490603E-02
   34.8912  3.590634E-02
   35.2990  3.693522E-02
   35.7115  3.799360E-02
   36.1288  3.908240E-02
   36.5510  4.020241E-02
   36.9781  4.135442E-02
   37.4103  4.253947E-02
   37.8474  4.375863E-02
   38.2897  4.501254E-02
   38.7372  4.630240E-02
   39.1899  4.726456E-02
   39.6478  4.786501E-02
   40.1112  4.879834E-02
   40.5799  4.956459E-02
   41.0541  5.042054E-02
   41.5339  5.159498E-02
   42.0192  5.256619E-02
   42.5103  5.369364E-02
   43.0071  5.458604E-02
   43.5096  5.575570E-02
   44.0181  5.670392E-02
   44.5325  5.793536E-02
   45.0529  5.914780E-02
   45.5794  6.050267E-02
   46.1120  6.186650E-02
   46.6509  6.305865E-02
   47.1961  6.425072E-02
   47.7476  6.542836E-02
   48.3056  6.639604E-02
   48.8701  6.691556E-02
   49.4412  6.824019E-02
   50.0190  6.902707E-02
   50.6035  6.930853E-02
   51.1948  6.959109E-02
   51.7931  6.987469E-02
   52.3983  7.038323E-02
   53.0107  7.117711E-02
   53.6302  7.222947E-02
   54.2569  7.359537E-02
   54.8909  7.450492E-02
   55.5324  7.587740E-02
   56.1814  7.735796E-02
   56.8379  7.924736E-02
   57.5021  8.090047E-02
   58.1741  8.241441E-02
   58.8539  8.419316E-02
   59.5417  8.573768E-02
   60.2375  8.698980E-02
   60.9414  8.824957E-02
   61.6536  8.952087E-02
   62.3741  9.032586E-02
   63.1030  9.158923E-02
   63.8404  9.237509E-02
   64.5864  9.345662E-02
   65.3412  9.424937E-02
   66.1048  9.552597E-02
   66.8773  9.646467E-02
   67.6588  9.759413E-02
   68.4495  9.883133E-02
   69.2494  0.100155
   70.0586  0.102112
   70.8773  0.103497
   71.7056  0.104690
   72.5436  0.105898
   73.3913  0.107172
   74.2490  0.108326
   75.1166  0.109427
   75.9944  0.110327
   76.8825  0.111125
   77.7810  0.111897
   78.6899  0.112604
   79.6095  0.113374
   80.5398  0.114006
   81.4810  0.114674
   82.4332  0.115515
   83.3965  0.116417
   84.3711  0.117638
   85.3571  0.118930
   86.3545  0.120238
   87.3637  0.121726
   88.3846  0.123267
   89.4175  0.124848
   90.4624  0.126463
   91.5196  0.128103
   92.5891  0.129766
   93.6711  0.131427
   94.7657  0.132997
   95.8732  0.134578
   96.9935  0.136176
   98.1270  0.137422
   99.2737  0.139218
   100.434  0.140952
   101.608  0.142689
   102.795  0.144277
   103.996  0.145694
   105.211  0.147983
   106.441  0.149604
   107.685  0.149122
   108.943  0.145828
   110.216  0.136469
   111.504  0.114584
   112.807  1.073882E-02
   114.126  7.130574E-03
   115.459  7.848183E-03
   116.809  7.189296E-03
   118.174  5.278840E-03
   119.555  5.360160E-03
   120.952  5.179776E-03
   122.365  4.755329E-03
   123.795  4.661284E-03
   125.242  4.127462E-03
   126.705  4.126215E-03
   128.186  5.207806E-03
   129.684  6.801796E-03
   131.200  8.680172E-03
   132.733  9.579743E-03
   134.284  9.729010E-03
   135.853  9.841902E-03
   137.441  1.009707E-02
   139.047  1.040544E-02
   140.672  1.047135E-02
   142.316  1.042291E-02
   143.979  1.052616E-02
   145.661  1.070226E-02
   147.364  1.077086E-02
   149.086  1.075251E-02
   150.828  1.078341E-02
   152.590  1.083878E-02
   154.374  1.081538E-02
   156.178  1.068529E-02
   158.003  1.056661E-02
   159.849  1.065999E-02
   161.717  1.091968E-02
   163.607  1.154363E-02
   165.519  1.237523E-02
   167.453  1.321852E-02
   169.410  1.401808E-02
   171.390  1.449339E-02
   173.393  1.503870E-02
   175.419  1.554680E-02
   177.469  1.628676E-02
   179.543  1.705929E-02
   181.641  1.740922E-02
   183.764  1.782714E-02
   185.911  1.818259E-02
   188.084  1.858933E-02
   190.282  1.876124E-02
   192.505  1.911116E-02
   194.755  1.962578E-02
   197.031  2.000627E-02
   199.333  2.032796E-02
   201.663  2.072897E-02
   204.019  2.101286E-02
   206.403  2.146207E-02
   208.816  2.205989E-02
   211.256  2.263185E-02
   213.724  2.332122E-02
   216.222  2.390933E-02
   218.749  2.461530E-02
   221.305  2.519177E-02
   223.891  2.595844E-02
   226.508  2.656088E-02
   229.155  2.768248E-02
   231.833  2.884589E-02
   234.542  3.002021E-02
   237.283  3.092785E-02
   240.056  3.176698E-02
   242.861  3.269076E-02
   245.699  3.364148E-02
   248.570  3.410814E-02
   251.475  3.477733E-02
   254.414  3.586180E-02
   257.387  3.698606E-02
   260.395  3.814545E-02
   263.438  3.934154E-02
   266.516  4.057506E-02
   269.631  4.184723E-02
   272.782  4.315928E-02
   275.969  4.451263E-02
   279.194  4.590825E-02
   282.457  4.734755E-02
   285.758  4.883198E-02
   289.097  5.036288E-02
   292.476  5.194197E-02
   295.894  5.357069E-02
   299.351  5.525021E-02
   302.850  5.698265E-02
   306.389  5.876926E-02
   309.969  6.061153E-02
   313.592  6.251214E-02
   317.256  6.444855E-02
   320.964  6.643156E-02
   324.714  6.847595E-02
   328.509  7.058257E-02
   332.348  7.275423E-02
   336.232  7.499289E-02
   340.161  7.730028E-02
   344.136  7.967891E-02
   348.158  8.213063E-02
   352.226  8.465760E-02
   356.342  8.726235E-02
   360.507  8.994751E-02
   364.720  9.271526E-02
   368.982  9.556782E-02
   373.294  9.850858E-02
   377.656  0.101540
   382.069  0.104664
   386.534  0.107885
   391.051  0.111306
   395.621  0.114882
   400.244  0.118573
   404.922  0.122495
   409.654  0.126555
   414.441  0.130749
   419.284  0.135083
   424.184  0.139560
   429.141  0.144186
   434.156  0.148964
   439.229  0.153902
   444.362  0.159002
   449.555  0.164273
   454.808  0.169717
   460.123  0.175342
   465.500  0.181154
   470.940  0.187158
   476.444  0.193361
   482.011  0.199770
   487.644  0.206391
   493.343  0.213232
   499.108  0.220299
   504.941  0.227600
   510.841  0.235144
   516.811  0.242937
   522.851  0.250989
   528.961  0.259308
   535.142  0.267902
   541.396  0.276782
   547.723  0.285956
   554.123  0.295433
   560.599  0.305224
   567.150  0.315577
   573.778  0.326299
   580.483  0.337386
   587.266  0.348849
   594.129  0.360702
   601.072  0.372957
   608.096  0.385630
   615.203  0.398731
   622.392  0.412279
   629.665  0.426287
   637.024  0.440770
   644.468  0.456539
   651.999  0.472984
   659.618  0.490020
   667.327  0.507670
   675.125  0.525219
   683.015  0.542735
   690.996  0.560149
   699.071  0.578124
   707.241  0.597427
   715.506  0.617904
   723.867  0.639087
   732.326  0.661331
   740.884  0.684421
   749.542  0.708318
   758.301  0.733051
   767.163  0.758646
   776.128  0.785135
   785.198  0.812547
   794.374  0.840919
   803.657  0.870278
   813.048  0.900662
   822.550  0.932109
   832.162  0.964657
   841.887  0.998341
   851.725  1.03320
   861.678  1.06927
   871.748  1.10660
   881.935  1.14518
   892.242  1.18493
   902.668  1.22606
   913.217  1.26862
   923.889  1.31265
   934.686  1.35821
   945.608  1.40587
   956.659  1.45539
   967.838  1.50665
   979.148  1.55971
   990.591  1.61465
   1002.17  1.67153
   1013.88  1.73039
   1025.73  1.79134
   1037.71  1.85443
   1049.84  1.91975
   1062.11  1.98739
   1074.52  2.05739
   1087.08  2.12985
   1099.78  2.20486
   1112.63  2.28250
   1125.64  2.36289
   1138.79  2.44613
   1152.10  2.53229
   1165.56  2.62149
   1179.18  2.71381
   1192.96  2.80937
   1206.90  2.90832
   1221.01  3.01075
   1235.28  3.11680
   1249.71  3.22656
   1264.31  3.34021
   1279.09  3.45785
   1294.04  3.57963
   1309.16  3.70570
   1324.46  3.83621
   1339.94  3.97132
   1355.59  4.11119
   1371.44  4.25608
   1387.46  4.40611
   1403.68  4.56146
   1420.08  4.72224
   1436.68  4.88868
   1453.46  5.06100
   1470.45  5.23942
   1487.63  5.42407
   1505.02  5.61524
   1522.61  5.81450
   1540.40  6.02393
   1558.40  6.24083
   1576.61  6.46555
   1595.04  6.69838
   1613.68  6.93956
   1632.53  7.18941
   1651.61  7.44827
   1670.91  7.71645
   1690.44  7.99434
   1710.19  8.28219
   1730.18  8.58035
   1750.40  8.88927
   1770.85  9.20931
   1791.55  9.54086
   1812.48  9.88433
   1833.66  10.2401
   1855.09  10.6087
   1876.77  10.9906
   1898.70  11.3862
   1920.89  11.7960
   1943.34  12.2205
   1966.05  12.6603
   1989.02  13.1160
   2012.27  13.5881
   2035.78  14.0816
   2059.57  14.5989
   2083.64  15.1352
   2107.99  15.6912
   2132.62  16.2675
   2157.55  16.8650
   2182.76  17.4844
   2208.27  18.1265
   2234.07  18.7921
   2260.18  19.4821
   2286.59  20.1975
   2313.31  20.9391
   2340.35  21.7077
   2367.70  22.5046
   2395.37  23.3307
   2423.36  24.1870
   2451.68  25.0746
   2480.33  25.9948
   2509.31  26.9486
   2538.64  27.9374
   2568.30  28.9621
   2598.32  30.0245
   2628.68  31.1257
   2659.40  32.2673
   2690.48  33.4504
   2721.92  34.6768
   2753.73  35.9481
   2785.91  37.2658
   2818.46  38.6314
   2851.40  40.0469
   2884.72  41.5141
   2918.43  43.0346
   2952.54  44.6106
   2987.04  46.2440
   3021.95  47.9373
   3057.26  49.7235
   3092.99  51.5784
   3129.14  53.5020
   3165.70  55.4973
   3202.70  57.5663
   3240.12  59.7118
   3277.99  61.9366
   3316.29  64.2439
   3355.05  66.6366
   3394.26  69.1180
   3433.92  71.6909
   3474.05  74.3588
   3514.65  77.1253
   3555.72  79.9938
   3597.27  82.9677
   3639.31  86.0510
   3681.84  89.2479
   3724.87  92.5624
   3768.40  95.9986
   3812.43  99.5608
   3856.99  103.253
   3902.06  107.081
   3947.66  111.049
   3993.79  115.162
   4040.46  119.426
   4087.68  123.846
   4135.45  128.464
   4183.77  133.270
   4232.67  138.252
   4282.13  143.417
   4332.17  148.772
   4382.80  154.323
   4434.01  160.077
   4485.83  166.042
   4538.25  172.223
   4591.29  178.630
   4644.94  185.271
   4699.22  192.152
   4754.14  199.281
   4809.69  206.669
   4865.90  214.323
   4922.76  222.253
   4980.29  230.468
   5038.49  238.978
   5097.37  247.793
   5156.94  256.923
   5217.20  266.376
   5278.17  276.251
   5339.85  286.482
   5402.25  297.077
   5465.38  308.049
   5529.25  319.408
   5593.87  331.167
   5659.24  343.339
   5725.37  355.937
   5792.28  368.973
   5859.97  382.462
   5928.45  396.418
   5997.73  410.853
   6067.82  425.787
   6138.73  441.231
   6210.46  457.198
   6283.04  473.705
   6356.46  490.815
   6430.75  508.572
   6505.90  526.923
   6581.92  545.883
   6658.84  565.469
   6736.66  585.696
   6815.38  606.581
   6895.02  628.142
   6975.60  650.393
   7057.12  673.349
   7139.59  697.032
   7223.02  721.454
   7307.43  746.627
   7392.82  772.573
   7479.22  799.305
   7566.62  826.836
   7655.04  855.185
   7744.50  884.369
   7835.00  914.395
   7926.56  945.276
   8019.19  977.036
   8112.91  1009.73
   8207.71  1043.32
   8303.63  1077.82
   8400.67  1113.50
   8498.84  1150.16
   8598.15  1187.76
   8698.63  1226.33
   8800.29  1265.86
   8903.13  1306.37
   9007.17  1347.85
   9112.43  1390.30
   9218.91  1433.72
   9326.65  1478.12
   9435.64  1523.48
   9545.90  1569.81
   9657.46  1617.08
   9770.32  1665.30
   9884.49  1714.44
   10000.0  1764.50
