 Be Density=0.448, Angle=90.deg
 Photon Energy (eV), Atten Length (microns)
   30.0000  0.483215
   30.3506  0.503575
   30.7053  0.524789
   31.0641  0.546898
   31.4271  0.569939
   31.7944  0.593952
   32.1659  0.618975
   32.5418  0.645053
   32.9221  0.672230
   33.3068  0.700553
   33.6960  0.730068
   34.0898  0.757582
   34.4882  0.782892
   34.8912  0.805328
   35.2990  0.828404
   35.7115  0.852142
   36.1288  0.876562
   36.5510  0.901682
   36.9781  0.927521
   37.4103  0.954099
   37.8474  0.981443
   38.2897  1.00957
   38.7372  1.03850
   39.1899  1.06008
   39.6478  1.07354
   40.1112  1.09448
   40.5799  1.11166
   41.0541  1.13086
   41.5339  1.15720
   42.0192  1.17898
   42.5103  1.20427
   43.0071  1.22429
   43.5096  1.25052
   44.0181  1.27179
   44.5325  1.29941
   45.0529  1.32660
   45.5794  1.35699
   46.1120  1.38758
   46.6509  1.41432
   47.1961  1.44105
   47.7476  1.46746
   48.3056  1.48917
   48.8701  1.50082
   49.4412  1.53053
   50.0190  1.54818
   50.6035  1.55449
   51.1948  1.56083
   51.7931  1.56719
   52.3983  1.57860
   53.0107  1.59640
   53.6302  1.62000
   54.2569  1.65064
   54.8909  1.67104
   55.5324  1.70182
   56.1814  1.73503
   56.8379  1.77741
   57.5021  1.81448
   58.1741  1.84844
   58.8539  1.88833
   59.5417  1.92297
   60.2375  1.95106
   60.9414  1.97931
   61.6536  2.00783
   62.3741  2.02588
   63.1030  2.05422
   63.8404  2.07184
   64.5864  2.09610
   65.3412  2.11388
   66.1048  2.14251
   66.8773  2.16356
   67.6588  2.18890
   68.4495  2.21665
   69.2494  2.24633
   70.0586  2.29023
   70.8773  2.32128
   71.7056  2.34805
   72.5436  2.37514
   73.3913  2.40372
   74.2490  2.42959
   75.1166  2.45429
   75.9944  2.47448
   76.8825  2.49238
   77.7810  2.50970
   78.6899  2.52556
   79.6095  2.54282
   80.5398  2.55699
   81.4810  2.57196
   82.4332  2.59084
   83.3965  2.61106
   84.3711  2.63846
   85.3571  2.66744
   86.3545  2.69677
   87.3637  2.73015
   88.3846  2.76470
   89.4175  2.80016
   90.4624  2.83638
   91.5196  2.87317
   92.5891  2.91047
   93.6711  2.94772
   94.7657  2.98292
   95.8732  3.01838
   96.9935  3.05423
   98.1270  3.08219
   99.2737  3.12245
   100.434  3.16135
   101.608  3.20032
   102.795  3.23594
   103.996  3.26770
   105.211  3.31906
   106.441  3.35541
   107.685  3.34460
   108.943  3.27070
   110.216  3.06080
   111.504  2.56995
   112.807  0.240856
   114.126  0.159929
   115.459  0.176024
   116.809  0.161246
   118.174  0.118397
   119.555  0.120221
   120.952  0.116175
   122.365  0.106655
   123.795  0.104546
   125.242  9.257308E-02
   126.705  9.254511E-02
   128.186  0.116804
   129.684  0.152555
   131.200  0.194684
   132.733  0.214860
   134.284  0.218208
   135.853  0.220740
   137.441  0.226463
   139.047  0.233379
   140.672  0.234857
   142.316  0.233771
   143.979  0.236087
   145.661  0.240036
   147.364  0.241575
   149.086  0.241163
   150.828  0.241857
   152.590  0.243098
   154.374  0.242574
   156.178  0.239656
   158.003  0.236994
   159.849  0.239088
   161.717  0.244913
   163.607  0.258907
   165.519  0.277559
   167.453  0.296473
   169.410  0.314405
   171.390  0.325066
   173.393  0.337296
   175.419  0.348692
   177.469  0.365289
   179.543  0.382616
   181.641  0.390464
   183.764  0.399837
   185.911  0.407810
   188.084  0.416932
   190.282  0.420788
   192.505  0.428636
   194.755  0.440178
   197.031  0.448712
   199.333  0.455927
   201.663  0.464921
   204.019  0.471288
   206.403  0.481364
   208.816  0.494772
   211.256  0.507600
   213.724  0.523062
   216.222  0.536252
   218.749  0.552086
   221.305  0.565015
   223.891  0.582211
   226.508  0.595722
   229.155  0.620878
   231.833  0.646972
   234.542  0.673310
   237.283  0.693667
   240.056  0.712488
   242.861  0.733207
   245.699  0.754530
   248.570  0.764997
   251.475  0.780006
   254.414  0.804329
   257.387  0.829544
   260.395  0.855548
   263.438  0.882375
   266.516  0.910041
   269.631  0.938574
   272.782  0.968001
   275.969  0.998355
   279.194  1.02966
   282.457  1.06194
   285.758  1.09523
   289.097  1.12957
   292.476  1.16498
   295.894  1.20151
   299.351  1.23918
   302.850  1.27804
   306.389  1.31811
   309.969  1.35943
   313.592  1.40206
   317.256  1.44549
   320.964  1.48996
   324.714  1.53582
   328.509  1.58307
   332.348  1.63177
   336.232  1.68198
   340.161  1.73373
   344.136  1.78708
   348.158  1.84207
   352.226  1.89875
   356.342  1.95717
   360.507  2.01739
   364.720  2.07947
   368.982  2.14345
   373.294  2.20941
   377.656  2.27739
   382.069  2.34747
   386.534  2.41970
   391.051  2.49643
   395.621  2.57664
   400.244  2.65943
   404.922  2.74739
   409.654  2.83844
   414.441  2.93252
   419.284  3.02971
   424.184  3.13013
   429.141  3.23388
   434.156  3.34106
   439.229  3.45179
   444.362  3.56620
   449.555  3.68440
   454.808  3.80651
   460.123  3.93267
   465.500  4.06302
   470.940  4.19768
   476.444  4.33681
   482.011  4.48055
   487.644  4.62905
   493.343  4.78248
   499.108  4.94099
   504.941  5.10475
   510.841  5.27394
   516.811  5.44874
   522.851  5.62933
   528.961  5.81590
   535.142  6.00866
   541.396  6.20782
   547.723  6.41357
   554.123  6.62614
   560.599  6.84574
   567.150  7.07794
   573.778  7.31843
   580.483  7.56709
   587.266  7.82418
   594.129  8.09002
   601.072  8.36490
   608.096  8.64912
   615.203  8.94298
   622.392  9.24683
   629.665  9.56101
   637.024  9.88585
   644.468  10.2395
   651.999  10.6084
   659.618  10.9905
   667.327  11.3863
   675.125  11.7799
   683.015  12.1728
   690.996  12.5633
   699.071  12.9665
   707.241  13.3994
   715.506  13.8587
   723.867  14.3338
   732.326  14.8327
   740.884  15.3506
   749.542  15.8866
   758.301  16.4413
   767.163  17.0153
   776.128  17.6094
   785.198  18.2243
   794.374  18.8606
   803.657  19.5191
   813.048  20.2006
   822.550  20.9059
   832.162  21.6359
   841.887  22.3914
   851.725  23.1731
   861.678  23.9822
   871.748  24.8195
   881.935  25.6847
   892.242  26.5763
   902.668  27.4987
   913.217  28.4532
   923.889  29.4410
   934.686  30.4627
   945.608  31.5316
   956.659  32.6423
   967.838  33.7921
   979.148  34.9822
   990.591  36.2143
   1002.17  37.4900
   1013.88  38.8103
   1025.73  40.1772
   1037.71  41.5923
   1049.84  43.0572
   1062.11  44.5743
   1074.52  46.1443
   1087.08  47.7695
   1099.78  49.4520
   1112.63  51.1933
   1125.64  52.9963
   1138.79  54.8631
   1152.10  56.7957
   1165.56  58.7962
   1179.18  60.8669
   1192.96  63.0101
   1206.90  65.2294
   1221.01  67.5269
   1235.28  69.9053
   1249.71  72.3672
   1264.31  74.9161
   1279.09  77.5546
   1294.04  80.2859
   1309.16  83.1136
   1324.46  86.0407
   1339.94  89.0710
   1355.59  92.2081
   1371.44  95.4577
   1387.46  98.8229
   1403.68  102.307
   1420.08  105.913
   1436.68  109.646
   1453.46  113.511
   1470.45  117.513
   1487.63  121.654
   1505.02  125.942
   1522.61  130.411
   1540.40  135.108
   1558.40  139.973
   1576.61  145.013
   1595.04  150.235
   1613.68  155.644
   1632.53  161.248
   1651.61  167.054
   1670.91  173.069
   1690.44  179.302
   1710.19  185.758
   1730.18  192.445
   1750.40  199.374
   1770.85  206.552
   1791.55  213.988
   1812.48  221.691
   1833.66  229.671
   1855.09  237.938
   1876.77  246.503
   1898.70  255.376
   1920.89  264.568
   1943.34  274.089
   1966.05  283.953
   1989.02  294.173
   2012.27  304.761
   2035.78  315.831
   2059.57  327.432
   2083.64  339.462
   2107.99  351.930
   2132.62  364.856
   2157.55  378.258
   2182.76  392.149
   2208.27  406.550
   2234.07  421.480
   2260.18  436.955
   2286.59  453.001
   2313.31  469.634
   2340.35  486.872
   2367.70  504.747
   2395.37  523.274
   2423.36  542.479
   2451.68  562.387
   2480.33  583.026
   2509.31  604.419
   2538.64  626.595
   2568.30  649.579
   2598.32  673.405
   2628.68  698.105
   2659.40  723.709
   2690.48  750.244
   2721.92  777.751
   2753.73  806.265
   2785.91  835.818
   2818.46  866.448
   2851.40  898.195
   2884.72  931.102
   2918.43  965.205
   2952.54  1000.55
   2987.04  1037.19
   3021.95  1075.16
   3057.26  1115.23
   3092.99  1156.83
   3129.14  1199.97
   3165.70  1244.72
   3202.70  1291.13
   3240.12  1339.25
   3277.99  1389.15
   3316.29  1440.90
   3355.05  1494.56
   3394.26  1550.22
   3433.92  1607.92
   3474.05  1667.76
   3514.65  1729.81
   3555.72  1794.15
   3597.27  1860.85
   3639.31  1930.00
   3681.84  2001.70
   3724.87  2076.04
   3768.40  2153.11
   3812.43  2233.01
   3856.99  2315.82
   3902.06  2401.67
   3947.66  2490.67
   3993.79  2582.91
   4040.46  2678.55
   4087.68  2777.69
   4135.45  2881.27
   4183.77  2989.05
   4232.67  3100.79
   4282.13  3216.64
   4332.17  3336.74
   4382.80  3461.24
   4434.01  3590.30
   4485.83  3724.08
   4538.25  3862.72
   4591.29  4006.43
   4644.94  4155.36
   4699.22  4309.69
   4754.14  4469.60
   4809.69  4635.29
   4865.90  4806.96
   4922.76  4984.82
   4980.29  5169.07
   5038.49  5359.93
   5097.37  5557.65
   5156.94  5762.41
   5217.20  5974.43
   5278.17  6195.93
   5339.85  6425.39
   5402.25  6663.01
   5465.38  6909.11
   5529.25  7163.87
   5593.87  7427.59
   5659.24  7700.59
   5725.37  7983.16
   5792.28  8275.54
   5859.97  8578.07
   5928.45  8891.10
   5997.73  9214.84
   6067.82  9549.80
   6138.73  9896.18
   6210.46  10254.3
   6283.04  10624.5
   6356.46  11008.3
   6430.75  11406.5
   6505.90  11818.1
   6581.92  12243.4
   6658.84  12682.7
   6736.66  13136.3
   6815.38  13604.8
   6895.02  14088.3
   6975.60  14587.4
   7057.12  15102.3
   7139.59  15633.4
   7223.02  16181.2
   7307.43  16745.8
   7392.82  17327.7
   7479.22  17927.3
   7566.62  18544.7
   7655.04  19180.6
   7744.50  19835.1
   7835.00  20508.6
   7926.56  21201.2
   8019.19  21913.5
   8112.91  22646.7
   8207.71  23400.2
   8303.63  24174.0
   8400.67  24974.3
   8498.84  25796.4
   8598.15  26639.8
   8698.63  27504.8
   8800.29  28391.5
   8903.13  29300.0
   9007.17  30230.3
   9112.43  31182.4
   9218.91  32156.3
   9326.65  33152.1
   9435.64  34169.6
   9545.90  35208.5
   9657.46  36268.8
   9770.32  37350.2
   9884.49  38452.4
   10000.0  39575.2
