 Be Density=0.4800E-01, Angle=90.deg
 Photon Energy (eV), Atten Length (microns)
   30.0000  4.51001
   30.3506  4.70003
   30.7053  4.89803
   31.0641  5.10438
   31.4271  5.31943
   31.7944  5.54355
   32.1659  5.77710
   32.5418  6.02049
   32.9221  6.27415
   33.3068  6.53849
   33.6960  6.81397
   34.0898  7.07076
   34.4882  7.30700
   34.8912  7.51639
   35.2990  7.73177
   35.7115  7.95333
   36.1288  8.18125
   36.5510  8.41570
   36.9781  8.65686
   37.4103  8.90493
   37.8474  9.16014
   38.2897  9.42263
   38.7372  9.69264
   39.1899  9.89405
   39.6478  10.0197
   40.1112  10.2151
   40.5799  10.3755
   41.0541  10.5547
   41.5339  10.8005
   42.0192  11.0039
   42.5103  11.2399
   43.0071  11.4267
   43.5096  11.6715
   44.0181  11.8700
   44.5325  12.1278
   45.0529  12.3816
   45.5794  12.6652
   46.1120  12.9507
   46.6509  13.2003
   47.1961  13.4498
   47.7476  13.6963
   48.3056  13.8989
   48.8701  14.0077
   49.4412  14.2849
   50.0190  14.4497
   50.6035  14.5086
   51.1948  14.5677
   51.7931  14.6271
   52.3983  14.7336
   53.0107  14.8997
   53.6302  15.1200
   54.2569  15.4060
   54.8909  15.5964
   55.5324  15.8837
   56.1814  16.1936
   56.8379  16.5891
   57.5021  16.9352
   58.1741  17.2521
   58.8539  17.6244
   59.5417  17.9478
   60.2375  18.2099
   60.9414  18.4736
   61.6536  18.7397
   62.3741  18.9082
   63.1030  19.1727
   63.8404  19.3372
   64.5864  19.5636
   65.3412  19.7295
   66.1048  19.9968
   66.8773  20.1933
   67.6588  20.4297
   68.4495  20.6887
   69.2494  20.9657
   70.0586  21.3755
   70.8773  21.6653
   71.7056  21.9151
   72.5436  22.1679
   73.3913  22.4347
   74.2490  22.6762
   75.1166  22.9067
   75.9944  23.0952
   76.8825  23.2622
   77.7810  23.4238
   78.6899  23.5718
   79.6095  23.7330
   80.5398  23.8652
   81.4810  24.0050
   82.4332  24.1812
   83.3965  24.3699
   84.3711  24.6256
   85.3571  24.8961
   86.3545  25.1699
   87.3637  25.4814
   88.3846  25.8038
   89.4175  26.1348
   90.4624  26.4728
   91.5196  26.8163
   92.5891  27.1643
   93.6711  27.5121
   94.7657  27.8406
   95.8732  28.1716
   96.9935  28.5062
   98.1270  28.7671
   99.2737  29.1429
   100.434  29.5059
   101.608  29.8697
   102.795  30.2021
   103.996  30.4985
   105.211  30.9779
   106.441  31.3172
   107.685  31.2162
   108.943  30.5266
   110.216  28.5675
   111.504  23.9862
   112.807  2.24799
   114.126  1.49267
   115.459  1.64289
   116.809  1.50496
   118.174  1.10504
   119.555  1.12206
   120.952  1.08430
   122.365  0.995449
   123.795  0.975762
   125.242  0.864016
   126.705  0.863754
   128.186  1.09017
   129.684  1.42384
   131.200  1.81705
   132.733  2.00536
   134.284  2.03661
   135.853  2.06024
   137.441  2.11365
   139.047  2.17821
   140.672  2.19200
   142.316  2.18186
   143.979  2.20348
   145.661  2.24034
   147.364  2.25470
   149.086  2.25086
   150.828  2.25733
   152.590  2.26892
   154.374  2.26402
   156.178  2.23679
   158.003  2.21194
   159.849  2.23149
   161.717  2.28585
   163.607  2.41647
   165.519  2.59055
   167.453  2.76708
   169.410  2.93445
   171.390  3.03395
   173.393  3.14810
   175.419  3.25446
   177.469  3.40936
   179.543  3.57108
   181.641  3.64433
   183.764  3.73181
   185.911  3.80622
   188.084  3.89137
   190.282  3.92735
   192.505  4.00060
   194.755  4.10833
   197.031  4.18798
   199.333  4.25532
   201.663  4.33926
   204.019  4.39869
   206.403  4.49273
   208.816  4.61787
   211.256  4.73760
   213.724  4.88191
   216.222  5.00502
   218.749  5.15280
   221.305  5.27348
   223.891  5.43397
   226.508  5.56008
   229.155  5.79487
   231.833  6.03841
   234.542  6.28423
   237.283  6.47423
   240.056  6.64989
   242.861  6.84326
   245.699  7.04228
   248.570  7.13997
   251.475  7.28006
   254.414  7.50707
   257.387  7.74241
   260.395  7.98512
   263.438  8.23550
   266.516  8.49371
   269.631  8.76002
   272.782  9.03468
   275.969  9.31798
   279.194  9.61013
   282.457  9.91142
   285.758  10.2222
   289.097  10.5426
   292.476  10.8732
   295.894  11.2141
   299.351  11.5657
   302.850  11.9284
   306.389  12.3024
   309.969  12.6880
   313.592  13.0859
   317.256  13.4912
   320.964  13.9063
   324.714  14.3343
   328.509  14.7753
   332.348  15.2299
   336.232  15.6985
   340.161  16.1815
   344.136  16.6794
   348.158  17.1927
   352.226  17.7217
   356.342  18.2669
   360.507  18.8290
   364.720  19.4084
   368.982  20.0055
   373.294  20.6211
   377.656  21.2557
   382.069  21.9097
   386.534  22.5838
   391.051  23.3000
   395.621  24.0486
   400.244  24.8214
   404.922  25.6423
   409.654  26.4921
   414.441  27.3702
   419.284  28.2773
   424.184  29.2146
   429.141  30.1829
   434.156  31.1832
   439.229  32.2167
   444.362  33.2845
   449.555  34.3877
   454.808  35.5274
   460.123  36.7049
   465.500  37.9215
   470.940  39.1784
   476.444  40.4769
   482.011  41.8184
   487.644  43.2044
   493.343  44.6365
   499.108  46.1159
   504.941  47.6443
   510.841  49.2235
   516.811  50.8549
   522.851  52.5404
   528.961  54.2818
   535.142  56.0808
   541.396  57.9397
   547.723  59.8600
   554.123  61.8439
   560.599  63.8936
   567.150  66.0608
   573.778  68.3053
   580.483  70.6262
   587.266  73.0257
   594.129  75.5069
   601.072  78.0724
   608.096  80.7251
   615.203  83.4678
   622.392  86.3038
   629.665  89.2361
   637.024  92.2679
   644.468  95.5689
   651.999  99.0113
   659.618  102.578
   667.327  106.272
   675.125  109.946
   683.015  113.613
   690.996  117.258
   699.071  121.021
   707.241  125.061
   715.506  129.348
   723.867  133.782
   732.326  138.439
   740.884  143.272
   749.542  148.275
   758.301  153.452
   767.163  158.810
   776.128  164.355
   785.198  170.093
   794.374  176.032
   803.657  182.178
   813.048  188.539
   822.550  195.121
   832.162  201.935
   841.887  208.986
   851.725  216.282
   861.678  223.833
   871.748  231.648
   881.935  239.724
   892.242  248.045
   902.668  256.654
   913.217  265.563
   923.889  274.782
   934.686  284.319
   945.608  294.295
   956.659  304.661
   967.838  315.393
   979.148  326.500
   990.591  338.000
   1002.17  349.906
   1013.88  362.229
   1025.73  374.987
   1037.71  388.195
   1049.84  401.868
   1062.11  416.027
   1074.52  430.680
   1087.08  445.848
   1099.78  461.552
   1112.63  477.804
   1125.64  494.632
   1138.79  512.056
   1152.10  530.093
   1165.56  548.765
   1179.18  568.091
   1192.96  588.094
   1206.90  608.807
   1221.01  630.251
   1235.28  652.450
   1249.71  675.427
   1264.31  699.217
   1279.09  723.843
   1294.04  749.335
   1309.16  775.727
   1324.46  803.047
   1339.94  831.329
   1355.59  860.609
   1371.44  890.939
   1387.46  922.347
   1403.68  954.865
   1420.08  988.522
   1436.68  1023.36
   1453.46  1059.44
   1470.45  1096.79
   1487.63  1135.44
   1505.02  1175.46
   1522.61  1217.17
   1540.40  1261.01
   1558.40  1306.41
   1576.61  1353.46
   1595.04  1402.19
   1613.68  1452.68
   1632.53  1504.98
   1651.61  1559.17
   1670.91  1615.31
   1690.44  1673.48
   1710.19  1733.74
   1730.18  1796.15
   1750.40  1860.82
   1770.85  1927.82
   1791.55  1997.22
   1812.48  2069.12
   1833.66  2143.60
   1855.09  2220.76
   1876.77  2300.70
   1898.70  2383.51
   1920.89  2469.30
   1943.34  2558.17
   1966.05  2650.23
   1989.02  2745.62
   2012.27  2844.44
   2035.78  2947.76
   2059.57  3056.04
   2083.64  3168.31
   2107.99  3284.68
   2132.62  3405.32
   2157.55  3530.41
   2182.76  3660.06
   2208.27  3794.47
   2234.07  3933.81
   2260.18  4078.24
   2286.59  4228.01
   2313.31  4383.25
   2340.35  4544.14
   2367.70  4710.97
   2395.37  4883.89
   2423.36  5063.14
   2451.68  5248.95
   2480.33  5441.57
   2509.31  5641.25
   2538.64  5848.22
   2568.30  6062.74
   2598.32  6285.12
   2628.68  6515.64
   2659.40  6754.61
   2690.48  7002.28
   2721.92  7259.01
   2753.73  7525.14
   2785.91  7800.97
   2818.46  8086.85
   2851.40  8383.16
   2884.72  8690.29
   2918.43  9008.58
   2952.54  9338.48
   2987.04  9680.41
   3021.95  10034.9
   3057.26  10408.8
   3092.99  10797.1
   3129.14  11199.8
   3165.70  11617.4
   3202.70  12050.5
   3240.12  12499.7
   3277.99  12965.4
   3316.29  13448.4
   3355.05  13949.3
   3394.26  14468.7
   3433.92  15007.3
   3474.05  15565.8
   3514.65  16144.9
   3555.72  16745.4
   3597.27  17367.9
   3639.31  18013.4
   3681.84  18682.6
   3724.87  19376.4
   3768.40  20095.7
   3812.43  20841.4
   3856.99  21614.3
   3902.06  22415.6
   3947.66  23246.2
   3993.79  24107.2
   4040.46  24999.8
   4087.68  25925.1
   4135.45  26891.8
   4183.77  27897.8
   4232.67  28940.7
   4282.13  30022.0
   4332.17  31142.9
   4382.80  32304.9
   4434.01  33509.5
   4485.83  34758.1
   4538.25  36052.1
   4591.29  37393.3
   4644.94  38783.4
   4699.22  40223.7
   4754.14  41716.2
   4809.69  43262.7
   4865.90  44865.0
   4922.76  46525.0
   4980.29  48244.7
   5038.49  50026.1
   5097.37  51871.4
   5156.94  53782.5
   5217.20  55761.3
   5278.17  57828.6
   5339.85  59970.3
   5402.25  62188.1
   5465.38  64485.0
   5529.25  66862.8
   5593.87  69324.2
   5659.24  71872.2
   5725.37  74509.5
   5792.28  77238.3
   5859.97  80062.0
   5928.45  82983.6
   5997.73  86005.2
   6067.82  89131.5
   6138.73  92364.4
   6210.46  95706.7
   6283.04  99162.2
   6356.46  102744.
   6430.75  106461.
   6505.90  110303.
   6581.92  114272.
   6658.84  118372.
   6736.66  122606.
   6815.38  126978.
   6895.02  131491.
   6975.60  136149.
   7057.12  140954.
   7139.59  145912.
   7223.02  151024.
   7307.43  156294.
   7392.82  161725.
   7479.22  167321.
   7566.62  173084.
   7655.04  179019.
   7744.50  185128.
   7835.00  191413.
   7926.56  197878.
   8019.19  204526.
   8112.91  211369.
   8207.71  218402.
   8303.63  225624.
   8400.67  233094.
   8498.84  240766.
   8598.15  248639.
   8698.63  256712.
   8800.29  264987.
   8903.13  273467.
   9007.17  282150.
   9112.43  291036.
   9218.91  300126.
   9326.65  309420.
   9435.64  318916.
   9545.90  328613.
   9657.46  338509.
   9770.32  348602.
   9884.49  358889.
   10000.0  369369.
