 Be Density=0.4800E-01, Angle=90.deg
 Photon Energy (eV), Atten Length (microns)
   30.0000  4.51001
   30.3927  4.72323
   30.7905  4.94650
   31.1935  5.18034
   31.6019  5.42525
   32.0155  5.68173
   32.4346  5.95032
   32.8591  6.23163
   33.2892  6.52624
   33.7250  6.83478
   34.1664  7.11761
   34.6136  7.37180
   35.0667  7.60866
   35.5257  7.85310
   35.9907  8.10543
   36.4618  8.36587
   36.9391  8.63466
   37.4226  8.91209
   37.9125  9.19846
   38.4087  9.49399
   38.9115  9.79604
   39.4208  9.94219
   39.9368  10.1400
   40.4596  10.3376
   40.9891  10.5329
   41.5257  10.7961
   42.0692  11.0244
   42.6199  11.2783
   43.1778  11.5197
   43.7429  11.7718
   44.3155  12.0077
   44.8956  12.2882
   45.4832  12.6117
   46.0786  12.9353
   46.6817  13.2146
   47.2928  13.4941
   47.9118  13.7581
   48.5390  13.9439
   49.1743  14.1313
   49.8180  14.4117
   50.4701  14.4952
   51.1307  14.5613
   51.8000  14.6278
   52.4780  14.7550
   53.1649  14.9416
   53.8608  15.2355
   54.5658  15.5105
   55.2801  15.7763
   56.0037  16.0874
   56.7367  16.5278
   57.4794  16.9269
   58.2318  17.2886
   58.9940  17.6954
   59.7662  18.0323
   60.5485  18.3252
   61.3411  18.6535
   62.1440  18.8545
   62.9574  19.1191
   63.7815  19.3298
   64.6164  19.5702
   65.4622  19.7674
   66.3190  20.0513
   67.1871  20.2840
   68.0666  20.5562
   68.9575  20.8646
   69.8601  21.2674
   70.7746  21.6343
   71.7010  21.9137
   72.6395  22.2098
   73.5903  22.4773
   74.5536  22.7681
   75.5294  23.0121
   76.5181  23.1831
   77.5197  23.3616
   78.5344  23.5329
   79.5623  23.7263
   80.6038  23.8743
   81.6588  24.0289
   82.7277  24.2389
   83.8106  24.4705
   84.9076  24.7740
   86.0190  25.0758
   87.1450  25.4138
   88.2857  25.7723
   89.4413  26.1425
   90.6120  26.5214
   91.7981  26.9068
   92.9997  27.2981
   94.2170  27.6759
   95.4502  28.0453
   96.6996  28.4184
   97.9654  28.7413
   99.2477  29.1327
   100.547  29.5217
   101.863  29.9593
   103.196  30.3112
   104.547  30.7107
   105.916  31.1955
   107.302  31.2711
   108.706  30.6649
   110.129  28.7919
   111.571  22.8901
   113.031  1.59296
   114.511  1.64324
   116.010  1.57542
   117.528  1.28814
   119.067  1.12564
   120.625  1.07597
   122.204  0.992334
   123.804  0.974845
   125.424  0.848615
   127.066  0.893068
   128.729  1.19738
   130.414  1.60103
   132.121  1.95500
   133.851  2.03380
   135.603  2.05861
   137.378  2.11083
   139.176  2.18156
   140.998  2.18668
   142.843  2.18555
   144.713  2.21869
   146.607  2.25724
   148.526  2.24763
   150.470  2.25044
   152.440  2.27028
   154.435  2.26358
   156.457  2.23269
   158.505  2.21779
   160.579  2.24621
   162.681  2.34030
   164.811  2.52601
   166.968  2.72359
   169.154  2.91400
   171.368  3.03318
   173.611  3.16320
   175.883  3.28919
   178.185  3.48727
   180.518  3.61613
   182.881  3.70191
   185.275  3.78499
   187.700  3.87202
   190.157  3.92288
   192.646  4.00475
   195.167  4.11819
   197.722  4.21565
   200.310  4.29635
   202.932  4.37084
   205.588  4.45765
   208.279  4.58934
   211.006  4.72261
   213.768  4.88417
   216.566  5.02369
   219.400  5.19033
   222.272  5.33135
   225.182  5.47538
   228.129  5.68990
   231.115  5.94214
   234.140  6.24720
   237.205  6.46627
   240.310  6.67650
   243.456  6.87612
   246.642  7.07392
   249.871  7.17008
   253.141  7.40772
   256.455  7.66817
   259.812  7.93771
   263.213  8.21682
   266.658  8.50572
   270.148  8.80478
   273.685  9.11436
   277.267  9.43484
   280.896  9.76656
   284.573  10.1099
   288.298  10.4654
   292.072  10.8333
   295.895  11.2142
   299.768  11.6085
   303.692  12.0167
   307.667  12.4392
   311.694  12.8765
   315.774  13.3274
   319.907  13.7872
   324.095  14.2630
   328.337  14.7551
   332.635  15.2642
   336.989  15.7908
   341.400  16.3357
   345.868  16.8993
   350.396  17.4824
   354.982  18.0856
   359.629  18.7096
   364.336  19.3552
   369.105  20.0230
   373.936  20.7139
   378.831  21.4286
   383.790  22.1680
   388.813  22.9388
   393.903  23.7654
   399.059  24.6217
   404.282  25.5288
   409.574  26.4777
   414.935  27.4619
   420.367  28.4827
   425.869  29.5415
   431.443  30.6396
   437.091  31.7785
   442.812  32.9597
   448.608  34.1849
   454.480  35.4555
   460.429  36.7735
   466.456  38.1404
   472.562  39.5581
   478.747  41.0286
   485.014  42.5535
   491.363  44.1354
   497.794  45.7760
   504.310  47.4775
   510.911  49.2424
   517.599  51.0727
   524.374  52.9711
   531.238  54.9401
   538.191  56.9823
   545.236  59.1005
   552.373  61.2973
   559.603  63.5756
   566.928  65.9865
   574.349  68.5011
   581.867  71.1115
   589.483  73.8212
   597.199  76.6344
   605.016  79.5547
   612.936  82.5864
   620.959  85.7335
   629.087  89.0005
   637.321  92.3920
   645.663  96.1099
   654.115  99.9931
   662.677  104.033
   671.351  108.184
   680.139  112.315
   689.041  116.358
   698.061  120.545
   707.198  125.039
   716.455  129.846
   725.833  134.844
   735.334  140.125
   744.959  145.612
   754.710  151.315
   764.589  157.241
   774.597  163.399
   784.736  169.798
   795.008  176.448
   805.414  183.357
   815.956  190.537
   826.637  197.999
   837.457  205.755
   848.419  213.812
   859.524  222.185
   870.775  230.886
   882.173  239.914
   893.720  249.255
   905.419  258.958
   917.270  269.040
   929.277  279.515
   941.441  290.447
   953.764  301.923
   966.248  313.851
   978.896  326.249
   991.709  339.138
   1004.69  352.537
   1017.84  366.463
   1031.16  380.941
   1044.66  395.990
   1058.34  411.637
   1072.19  427.902
   1086.22  444.806
   1100.44  462.377
   1114.85  480.640
   1129.44  499.628
   1144.22  519.368
   1159.20  539.888
   1174.37  561.218
   1189.74  583.383
   1205.32  606.428
   1221.09  630.387
   1237.08  655.290
   1253.27  681.177
   1269.68  708.087
   1286.29  736.058
   1303.13  765.135
   1320.19  795.360
   1337.47  826.779
   1354.98  859.440
   1372.71  893.414
   1390.68  928.742
   1408.88  965.466
   1427.33  1003.64
   1446.01  1043.31
   1464.94  1084.57
   1484.11  1127.44
   1503.54  1172.02
   1523.22  1218.66
   1543.16  1267.90
   1563.36  1319.11
   1583.82  1372.39
   1604.55  1427.82
   1625.55  1485.48
   1646.83  1545.47
   1668.39  1607.89
   1690.23  1672.84
   1712.35  1740.40
   1734.76  1810.69
   1757.47  1883.81
   1780.48  1959.89
   1803.78  2039.03
   1827.39  2121.36
   1851.31  2207.01
   1875.54  2296.13
   1900.09  2388.84
   1924.97  2485.28
   1950.16  2585.60
   1975.69  2689.98
   2001.55  2798.58
   2027.75  2911.79
   2054.29  3031.77
   2081.18  3156.71
   2108.42  3286.77
   2136.02  3422.19
   2163.98  3563.19
   2192.31  3709.98
   2221.00  3862.80
   2250.07  4021.91
   2279.53  4187.58
   2309.36  4360.07
   2339.59  4539.59
   2370.22  4726.54
   2401.24  4921.15
   2432.67  5123.75
   2464.51  5334.67
   2496.77  5554.27
   2529.46  5782.87
   2562.56  6020.83
   2596.11  6268.56
   2630.09  6526.47
   2664.52  6794.97
   2699.39  7074.43
   2734.73  7365.40
   2770.52  7668.26
   2806.79  7983.52
   2843.53  8311.68
   2880.75  8653.26
   2918.46  9008.80
   2956.66  9378.86
   2995.36  9764.06
   3034.57  10167.0
   3074.29  10592.6
   3114.53  11035.8
   3155.29  11497.5
   3196.60  11978.4
   3238.44  12479.2
   3280.83  13000.8
   3323.77  13544.1
   3367.28  14109.9
   3411.35  14699.2
   3456.01  15313.0
   3501.24  15952.1
   3547.07  16617.7
   3593.50  17310.8
   3640.54  18032.5
   3688.19  18784.0
   3736.47  19566.4
   3785.38  20381.1
   3834.93  21229.3
   3885.13  22112.3
   3935.98  23031.6
   3987.50  23988.5
   4039.69  24985.0
   4092.57  26022.2
   4146.14  27112.3
   4200.41  28249.8
   4255.39  29434.3
   4311.09  30667.5
   4367.52  31951.4
   4424.69  33288.1
   4482.61  34679.6
   4541.29  36128.0
   4600.73  37635.6
   4660.95  39204.7
   4721.96  40837.4
   4783.77  42536.4
   4846.39  44304.4
   4909.82  46143.8
   4974.09  48057.3
   5039.20  50048.1
   5105.16  52118.7
   5171.98  54272.1
   5239.68  56517.5
   5308.27  58867.4
   5377.75  61311.0
   5448.14  63852.3
   5519.45  66494.4
   5591.70  69240.7
   5664.89  72095.3
   5739.04  75062.1
   5814.17  78144.4
   5890.27  81346.7
   5967.37  84672.9
   6045.48  88127.7
   6124.61  91715.2
   6204.78  95439.3
   6286.00  99304.7
   6368.28  103330.
   6451.64  107521.
   6536.09  111869.
   6621.64  116378.
   6708.31  121053.
   6796.12  125900.
   6885.08  130923.
   6975.20  136126.
   7066.50  141514.
   7159.00  147093.
   7252.71  152867.
   7347.64  158839.
   7443.82  165016.
   7541.26  171402.
   7639.97  178000.
   7739.97  184816.
   7841.28  191854.
   7943.92  199115.
   8047.90  206611.
   8153.25  214349.
   8259.97  222323.
   8368.09  230572.
   8477.62  239099.
   8588.59  247876.
   8701.01  256904.
   8814.90  266186.
   8930.29  275723.
   9047.18  285516.
   9165.60  295563.
   9285.58  305866.
   9407.12  316422.
   9530.25  327231.
   9655.00  338290.
   9781.38  349596.
   9909.41  361145.
   10039.1  372962.
   10170.5  385090.
   10303.7  397460.
   10438.5  410066.
   10575.2  422901.
   10713.6  435959.
   10853.8  449231.
   10995.9  462710.
   11139.8  476385.
   11285.6  490242.
   11433.4  504276.
   11583.0  518470.
   11734.6  532812.
   11888.2  547290.
   12043.8  561889.
   12201.5  576590.
   12361.2  591389.
   12523.0  606349.
   12686.9  621409.
   12853.0  636513.
   13021.2  651640.
   13191.7  666770.
   13364.3  681889.
   13539.3  696979.
   13716.5  712018.
   13896.0  726984.
   14077.9  741868.
   14262.2  756643.
   14448.9  771294.
   14638.0  785805.
   14829.6  800155.
   15023.7  814411.
   15220.4  829113.
   15419.6  843657.
   15621.5  858030.
   15825.9  872221.
   16033.1  886213.
   16243.0  899995.
   16455.6  913621.
   16671.0  927040.
   16889.2  940212.
   17110.2  953120.
   17334.2  965762.
   17561.1  978128.
   17791.0  990206.
   18023.8  1.001992E+06
   18259.8  1.013481E+06
   18498.8  1.024663E+06
   18740.9  1.035537E+06
   18986.2  1.046100E+06
   19234.8  1.056349E+06
   19486.5  1.066279E+06
   19741.6  1.075892E+06
   20000.0  1.085184E+06
