 Be Density=1.648, Angle=90.deg
 Photon Energy (eV), Atten Length (microns)
   30.0000  0.131359
   30.3506  0.136894
   30.7053  0.142661
   31.0641  0.148671
   31.4271  0.154935
   31.7944  0.161463
   32.1659  0.168265
   32.5418  0.175354
   32.9221  0.182742
   33.3068  0.190442
   33.6960  0.198465
   34.0898  0.205945
   34.4882  0.212825
   34.8912  0.218924
   35.2990  0.225197
   35.7115  0.231650
   36.1288  0.238289
   36.5510  0.245118
   36.9781  0.252142
   37.4103  0.259367
   37.8474  0.266800
   38.2897  0.274445
   38.7372  0.282310
   39.1899  0.288176
   39.6478  0.291837
   40.1112  0.297528
   40.5799  0.302200
   41.0541  0.307418
   41.5339  0.314579
   42.0192  0.320501
   42.5103  0.327375
   43.0071  0.332816
   43.5096  0.339947
   44.0181  0.345729
   44.5325  0.353237
   45.0529  0.360629
   45.5794  0.368890
   46.1120  0.377205
   46.6509  0.384474
   47.1961  0.391742
   47.7476  0.398922
   48.3056  0.404822
   48.8701  0.407990
   49.4412  0.416066
   50.0190  0.420864
   50.6035  0.422580
   51.1948  0.424303
   51.7931  0.426032
   52.3983  0.429133
   53.0107  0.433973
   53.6302  0.440389
   54.2569  0.448717
   54.8909  0.454263
   55.5324  0.462631
   56.1814  0.471658
   56.8379  0.483178
   57.5021  0.493257
   58.1741  0.502488
   58.8539  0.513333
   59.5417  0.522750
   60.2375  0.530384
   60.9414  0.538065
   61.6536  0.545817
   62.3741  0.550725
   63.1030  0.558428
   63.8404  0.563219
   64.5864  0.569813
   65.3412  0.574647
   66.1048  0.582430
   66.8773  0.588154
   67.6588  0.595040
   68.4495  0.602583
   69.2494  0.610652
   70.0586  0.622588
   70.8773  0.631028
   71.7056  0.638305
   72.5436  0.645668
   73.3913  0.653439
   74.2490  0.660471
   75.1166  0.667187
   75.9944  0.672675
   76.8825  0.677540
   77.7810  0.682248
   78.6899  0.686559
   79.6095  0.691252
   80.5398  0.695103
   81.4810  0.699175
   82.4332  0.704306
   83.3965  0.709802
   84.3711  0.717251
   85.3571  0.725129
   86.3545  0.733103
   87.3637  0.742176
   88.3846  0.751568
   89.4175  0.761207
   90.4624  0.771054
   91.5196  0.781057
   92.5891  0.791195
   93.6711  0.801322
   94.7657  0.810891
   95.8732  0.820531
   96.9935  0.830277
   98.1270  0.837876
   99.2737  0.848823
   100.434  0.859396
   101.608  0.869990
   102.795  0.879672
   103.996  0.888306
   105.211  0.902268
   106.441  0.912151
   107.685  0.909211
   108.943  0.889123
   110.216  0.832062
   111.504  0.698627
   112.807  6.547555E-02
   114.126  4.347573E-02
   115.459  4.785105E-02
   116.809  4.383377E-02
   118.174  3.218555E-02
   119.555  3.268136E-02
   120.952  3.158155E-02
   122.365  2.899366E-02
   123.795  2.842025E-02
   125.242  2.516550E-02
   126.705  2.515789E-02
   128.186  3.175245E-02
   129.684  4.147115E-02
   131.200  5.292377E-02
   132.733  5.840853E-02
   134.284  5.931862E-02
   135.853  6.000694E-02
   137.441  6.156275E-02
   139.047  6.344290E-02
   140.672  6.384472E-02
   142.316  6.354940E-02
   143.979  6.417889E-02
   145.661  6.525262E-02
   147.364  6.567086E-02
   149.086  6.555898E-02
   150.828  6.574740E-02
   152.590  6.608496E-02
   154.374  6.594235E-02
   156.178  6.514914E-02
   158.003  6.442557E-02
   159.849  6.499488E-02
   161.717  6.657822E-02
   163.607  7.038251E-02
   165.519  7.545284E-02
   167.453  8.059449E-02
   169.410  8.546944E-02
   171.390  8.836745E-02
   173.393  9.169223E-02
   175.419  9.479017E-02
   177.469  9.930182E-02
   179.543  0.104012
   181.641  0.106146
   183.764  0.108694
   185.911  0.110861
   188.084  0.113341
   190.282  0.114389
   192.505  0.116522
   194.755  0.119660
   197.031  0.121980
   199.333  0.123941
   201.663  0.126386
   204.019  0.128117
   206.403  0.130856
   208.816  0.134501
   211.256  0.137988
   213.724  0.142192
   216.222  0.145777
   218.749  0.150082
   221.305  0.153596
   223.891  0.158271
   226.508  0.161944
   229.155  0.168783
   231.833  0.175876
   234.542  0.183036
   237.283  0.188570
   240.056  0.193686
   242.861  0.199318
   245.699  0.205115
   248.570  0.207960
   251.475  0.212040
   254.414  0.218653
   257.387  0.225507
   260.395  0.232576
   263.438  0.239869
   266.516  0.247390
   269.631  0.255146
   272.782  0.263146
   275.969  0.271397
   279.194  0.279907
   282.457  0.288682
   285.758  0.297733
   289.097  0.307067
   292.476  0.316695
   295.894  0.326625
   299.351  0.336865
   302.850  0.347428
   306.389  0.358321
   309.969  0.369554
   313.592  0.381142
   317.256  0.392948
   320.964  0.405039
   324.714  0.417504
   328.509  0.430348
   332.348  0.443589
   336.232  0.457238
   340.161  0.471307
   344.136  0.485809
   348.158  0.500758
   352.226  0.516165
   356.342  0.532046
   360.507  0.548418
   364.720  0.565293
   368.982  0.582685
   373.294  0.600615
   377.656  0.619097
   382.069  0.638146
   386.534  0.657782
   391.051  0.678640
   395.621  0.700446
   400.244  0.722953
   404.922  0.746862
   409.654  0.771616
   414.441  0.797190
   419.284  0.823611
   424.184  0.850910
   429.141  0.879113
   434.156  0.908249
   439.229  0.938351
   444.362  0.969452
   449.555  1.00158
   454.808  1.03478
   460.123  1.06908
   465.500  1.10451
   470.940  1.14112
   476.444  1.17894
   482.011  1.21801
   487.644  1.25838
   493.343  1.30009
   499.108  1.34318
   504.941  1.38770
   510.841  1.43369
   516.811  1.48121
   522.851  1.53030
   528.961  1.58102
   535.142  1.63342
   541.396  1.68756
   547.723  1.74350
   554.123  1.80128
   560.599  1.86098
   567.150  1.92410
   573.778  1.98948
   580.483  2.05707
   587.266  2.12696
   594.129  2.19923
   601.072  2.27395
   608.096  2.35122
   615.203  2.43110
   622.392  2.51370
   629.665  2.59911
   637.024  2.68742
   644.468  2.78356
   651.999  2.88383
   659.618  2.98770
   667.327  3.09531
   675.125  3.20231
   683.015  3.30910
   690.996  3.41528
   699.071  3.52488
   707.241  3.64256
   715.506  3.76742
   723.867  3.89657
   732.326  4.03220
   740.884  4.17298
   749.542  4.31868
   758.301  4.46948
   767.163  4.62553
   776.128  4.78703
   785.198  4.95417
   794.374  5.12715
   803.657  5.30616
   813.048  5.49141
   822.550  5.68315
   832.162  5.88160
   841.887  6.08697
   851.725  6.29948
   861.678  6.51942
   871.748  6.74704
   881.935  6.98225
   892.242  7.22462
   902.668  7.47537
   913.217  7.73486
   923.889  8.00337
   934.686  8.28113
   945.608  8.57171
   956.659  8.87364
   967.838  9.18620
   979.148  9.50971
   990.591  9.84467
   1002.17  10.1915
   1013.88  10.5504
   1025.73  10.9220
   1037.71  11.3066
   1049.84  11.7049
   1062.11  12.1173
   1074.52  12.5441
   1087.08  12.9859
   1099.78  13.4433
   1112.63  13.9166
   1125.64  14.4068
   1138.79  14.9142
   1152.10  15.4396
   1165.56  15.9834
   1179.18  16.5464
   1192.96  17.1290
   1206.90  17.7323
   1221.01  18.3568
   1235.28  19.0034
   1249.71  19.6726
   1264.31  20.3655
   1279.09  21.0828
   1294.04  21.8253
   1309.16  22.5940
   1324.46  23.3897
   1339.94  24.2135
   1355.59  25.0663
   1371.44  25.9497
   1387.46  26.8645
   1403.68  27.8116
   1420.08  28.7919
   1436.68  29.8067
   1453.46  30.8573
   1470.45  31.9452
   1487.63  33.0710
   1505.02  34.2366
   1522.61  35.4515
   1540.40  36.7284
   1558.40  38.0509
   1576.61  39.4211
   1595.04  40.8406
   1613.68  42.3111
   1632.53  43.8345
   1651.61  45.4128
   1670.91  47.0479
   1690.44  48.7422
   1710.19  50.4972
   1730.18  52.3152
   1750.40  54.1987
   1770.85  56.1500
   1791.55  58.1715
   1812.48  60.2656
   1833.66  62.4349
   1855.09  64.6823
   1876.77  67.0106
   1898.70  69.4226
   1920.89  71.9214
   1943.34  74.5098
   1966.05  77.1912
   1989.02  79.9694
   2012.27  82.8476
   2035.78  85.8570
   2059.57  89.0108
   2083.64  92.2808
   2107.99  95.6703
   2132.62  99.1842
   2157.55  102.827
   2182.76  106.604
   2208.27  110.519
   2234.07  114.577
   2260.18  118.784
   2286.59  123.146
   2313.31  127.668
   2340.35  132.354
   2367.70  137.213
   2395.37  142.249
   2423.36  147.470
   2451.68  152.882
   2480.33  158.492
   2509.31  164.308
   2538.64  170.336
   2568.30  176.585
   2598.32  183.062
   2628.68  189.776
   2659.40  196.736
   2690.48  203.950
   2721.92  211.428
   2753.73  219.179
   2785.91  227.213
   2818.46  235.539
   2851.40  244.170
   2884.72  253.115
   2918.43  262.386
   2952.54  271.995
   2987.04  281.954
   3021.95  292.278
   3057.26  303.168
   3092.99  314.478
   3129.14  326.207
   3165.70  338.372
   3202.70  350.987
   3240.12  364.068
   3277.99  377.633
   3316.29  391.701
   3355.05  406.289
   3394.26  421.418
   3433.92  437.106
   3474.05  453.372
   3514.65  470.240
   3555.72  487.729
   3597.27  505.861
   3639.31  524.661
   3681.84  544.152
   3724.87  564.361
   3768.40  585.312
   3812.43  607.031
   3856.99  629.544
   3902.06  652.882
   3947.66  677.075
   3993.79  702.150
   4040.46  728.150
   4087.68  755.100
   4135.45  783.257
   4183.77  812.557
   4232.67  842.933
   4282.13  874.427
   4332.17  907.075
   4382.80  940.920
   4434.01  976.004
   4485.83  1012.37
   4538.25  1050.06
   4591.29  1089.13
   4644.94  1129.61
   4699.22  1171.56
   4754.14  1215.04
   4809.69  1260.08
   4865.90  1306.75
   4922.76  1355.10
   4980.29  1405.18
   5038.49  1457.07
   5097.37  1510.82
   5156.94  1566.48
   5217.20  1624.12
   5278.17  1684.33
   5339.85  1746.71
   5402.25  1811.30
   5465.38  1878.20
   5529.25  1947.46
   5593.87  2019.15
   5659.24  2093.37
   5725.37  2170.18
   5792.28  2249.66
   5859.97  2331.90
   5928.45  2417.00
   5997.73  2505.01
   6067.82  2596.06
   6138.73  2690.22
   6210.46  2787.57
   6283.04  2888.22
   6356.46  2992.54
   6430.75  3100.81
   6505.90  3212.70
   6581.92  3328.30
   6658.84  3447.71
   6736.66  3571.04
   6815.38  3698.38
   6895.02  3829.84
   6975.60  3965.50
   7057.12  4105.47
   7139.59  4249.87
   7223.02  4398.77
   7307.43  4552.25
   7392.82  4710.44
   7479.22  4873.43
   7566.62  5041.29
   7655.04  5214.14
   7744.50  5392.08
   7835.00  5575.14
   7926.56  5763.43
   8019.19  5957.07
   8112.91  6156.39
   8207.71  6361.22
   8303.63  6571.57
   8400.67  6789.13
   8498.84  7012.61
   8598.15  7241.90
   8698.63  7477.03
   8800.29  7718.08
   8903.13  7965.05
   9007.17  8217.96
   9112.43  8476.77
   9218.91  8741.53
   9326.65  9012.23
   9435.64  9288.81
   9545.90  9571.25
   9657.46  9859.47
   9770.32  10153.5
   9884.49  10453.1
   10000.0  10758.3
