 Be Density=1.848, Angle=90.deg
 Photon Energy (eV), Atten Length (microns)
   30.0000  0.117143
   30.3927  0.122681
   30.7905  0.128481
   31.1935  0.134554
   31.6019  0.140915
   32.0155  0.147577
   32.4346  0.154554
   32.8591  0.161861
   33.2892  0.169513
   33.7250  0.177527
   34.1664  0.184873
   34.6136  0.191475
   35.0667  0.197628
   35.5257  0.203977
   35.9907  0.210531
   36.4618  0.217295
   36.9391  0.224277
   37.4226  0.231483
   37.9125  0.238921
   38.4087  0.246597
   38.9115  0.254443
   39.4208  0.258239
   39.9368  0.263378
   40.4596  0.268510
   40.9891  0.273582
   41.5257  0.280417
   42.0692  0.286348
   42.6199  0.292942
   43.1778  0.299212
   43.7429  0.305761
   44.3155  0.311887
   44.8956  0.319173
   45.4832  0.327577
   46.0786  0.335982
   46.6817  0.343237
   47.2928  0.350497
   47.9118  0.357353
   48.5390  0.362180
   49.1743  0.367048
   49.8180  0.374329
   50.4701  0.376498
   51.1307  0.378217
   51.8000  0.379942
   52.4780  0.383247
   53.1649  0.388095
   53.8608  0.395727
   54.5658  0.402871
   55.2801  0.409774
   56.0037  0.417855
   56.7367  0.429294
   57.4794  0.439661
   58.2318  0.449054
   58.9940  0.459622
   59.7662  0.468370
   60.5485  0.475979
   61.3411  0.484506
   62.1440  0.489726
   62.9574  0.496600
   63.7815  0.502074
   64.6164  0.508316
   65.4622  0.513438
   66.3190  0.520813
   67.1871  0.526858
   68.0666  0.533929
   68.9575  0.541937
   69.8601  0.552400
   70.7746  0.561929
   71.7010  0.569188
   72.6395  0.576878
   73.5903  0.583827
   74.5536  0.591380
   75.5294  0.597717
   76.5181  0.602159
   77.5197  0.606795
   78.5344  0.611245
   79.5623  0.616267
   80.6038  0.620111
   81.6588  0.624129
   82.7277  0.629583
   83.8106  0.635598
   84.9076  0.643481
   86.0190  0.651320
   87.1450  0.660100
   88.2857  0.669410
   89.4413  0.679025
   90.6120  0.688866
   91.7981  0.698879
   92.9997  0.709042
   94.2170  0.718855
   95.4502  0.728450
   96.6996  0.738139
   97.9654  0.746526
   99.2477  0.756694
   100.547  0.766796
   101.863  0.778164
   103.196  0.787303
   104.547  0.797681
   105.916  0.810274
   107.302  0.812235
   108.706  0.796490
   110.129  0.747841
   111.571  0.594547
   113.031  4.137549E-02
   114.511  4.268157E-02
   116.010  4.091988E-02
   117.528  3.345807E-02
   119.067  2.923752E-02
   120.625  2.794725E-02
   122.204  2.577491E-02
   123.804  2.532067E-02
   125.424  2.204194E-02
   127.066  2.319657E-02
   128.729  3.110084E-02
   130.414  4.158518E-02
   132.121  5.077913E-02
   133.851  5.282596E-02
   135.603  5.347028E-02
   137.378  5.482677E-02
   139.176  5.666398E-02
   140.998  5.679676E-02
   142.843  5.676762E-02
   144.713  5.762837E-02
   146.607  5.862957E-02
   148.526  5.837989E-02
   150.470  5.845309E-02
   152.440  5.896839E-02
   154.435  5.879426E-02
   156.457  5.799203E-02
   158.505  5.760491E-02
   160.579  5.834307E-02
   162.681  6.078698E-02
   164.811  6.561054E-02
   166.968  7.074256E-02
   169.154  7.568841E-02
   171.368  7.878391E-02
   173.611  8.216105E-02
   175.883  8.543345E-02
   178.185  9.057842E-02
   180.518  9.392548E-02
   182.881  9.615353E-02
   185.275  9.831134E-02
   187.700  0.100572
   190.157  0.101893
   192.646  0.104019
   195.167  0.106966
   197.722  0.109497
   200.310  0.111594
   202.932  0.113528
   205.588  0.115783
   208.279  0.119204
   211.006  0.122665
   213.768  0.126862
   216.566  0.130485
   219.400  0.134814
   222.272  0.138477
   225.182  0.142218
   228.129  0.147790
   231.115  0.154341
   234.140  0.162265
   237.205  0.167955
   240.310  0.173416
   243.456  0.178600
   246.642  0.183738
   249.871  0.186236
   253.141  0.192408
   256.455  0.199173
   259.812  0.206174
   263.213  0.213424
   266.658  0.220928
   270.148  0.228696
   273.685  0.236737
   277.267  0.245061
   280.896  0.253677
   284.573  0.262596
   288.298  0.271827
   292.072  0.281385
   295.895  0.291279
   299.768  0.301520
   303.692  0.312122
   307.667  0.323095
   311.694  0.334455
   315.774  0.346167
   319.907  0.358110
   324.095  0.370469
   328.337  0.383249
   332.635  0.396472
   336.989  0.410152
   341.400  0.424303
   345.868  0.438944
   350.396  0.454089
   354.982  0.469756
   359.629  0.485964
   364.336  0.502733
   369.105  0.520077
   373.936  0.538023
   378.831  0.556587
   383.790  0.575792
   388.813  0.595814
   393.903  0.617283
   399.059  0.639526
   404.282  0.663086
   409.574  0.687734
   414.935  0.713296
   420.367  0.739811
   425.869  0.767312
   431.443  0.795833
   437.091  0.825415
   442.812  0.856096
   448.608  0.887919
   454.480  0.920923
   460.429  0.955155
   466.456  0.990660
   472.562  1.02748
   478.747  1.06568
   485.014  1.10529
   491.363  1.14637
   497.794  1.18899
   504.310  1.23318
   510.911  1.27902
   517.599  1.32656
   524.374  1.37587
   531.238  1.42701
   538.191  1.48006
   545.236  1.53508
   552.373  1.59214
   559.603  1.65131
   566.928  1.71393
   574.349  1.77925
   581.867  1.84705
   589.483  1.91743
   597.199  1.99050
   605.016  2.06636
   612.936  2.14510
   620.959  2.22684
   629.087  2.31170
   637.321  2.39979
   645.663  2.49636
   654.115  2.59722
   662.677  2.70216
   671.351  2.80997
   680.139  2.91728
   689.041  3.02229
   698.061  3.13105
   707.198  3.24777
   716.455  3.37263
   725.833  3.50245
   735.334  3.63960
   744.959  3.78214
   754.710  3.93026
   764.589  4.08418
   774.597  4.24412
   784.736  4.41033
   795.008  4.58306
   805.414  4.76252
   815.956  4.94902
   826.637  5.14284
   837.457  5.34428
   848.419  5.55355
   859.524  5.77103
   870.775  5.99703
   882.173  6.23153
   893.720  6.47415
   905.419  6.72617
   917.270  6.98806
   929.277  7.26013
   941.441  7.54408
   953.764  7.84214
   966.248  8.15197
   978.896  8.47400
   991.709  8.80879
   1004.69  9.15681
   1017.84  9.51852
   1031.16  9.89456
   1044.66  10.2855
   1058.34  10.6919
   1072.19  11.1143
   1086.22  11.5534
   1100.44  12.0098
   1114.85  12.4841
   1129.44  12.9773
   1144.22  13.4901
   1159.20  14.0231
   1174.37  14.5771
   1189.74  15.1528
   1205.32  15.7514
   1221.09  16.3737
   1237.08  17.0205
   1253.27  17.6929
   1269.68  18.3919
   1286.29  19.1184
   1303.13  19.8736
   1320.19  20.6587
   1337.47  21.4748
   1354.98  22.3231
   1372.71  23.2055
   1390.68  24.1232
   1408.88  25.0770
   1427.33  26.0685
   1446.01  27.0990
   1464.94  28.1706
   1484.11  29.2843
   1503.54  30.4419
   1523.22  31.6536
   1543.16  32.9324
   1563.36  34.2625
   1583.82  35.6464
   1604.55  37.0862
   1625.55  38.5840
   1646.83  40.1422
   1668.39  41.7635
   1690.23  43.4505
   1712.35  45.2053
   1734.76  47.0308
   1757.47  48.9302
   1780.48  50.9062
   1803.78  52.9618
   1827.39  55.1003
   1851.31  57.3250
   1875.54  59.6396
   1900.09  62.0477
   1924.97  64.5526
   1950.16  67.1586
   1975.69  69.8697
   2001.55  72.6904
   2027.75  75.6309
   2054.29  78.7472
   2081.18  81.9924
   2108.42  85.3707
   2136.02  88.8881
   2163.98  92.5504
   2192.31  96.3630
   2221.00  100.333
   2250.07  104.465
   2279.53  108.768
   2309.36  113.248
   2339.59  117.911
   2370.22  122.767
   2401.24  127.822
   2432.67  133.084
   2464.51  138.563
   2496.77  144.267
   2529.46  150.204
   2562.56  156.385
   2596.11  162.820
   2630.09  169.519
   2664.52  176.493
   2699.39  183.751
   2734.73  191.309
   2770.52  199.176
   2806.79  207.364
   2843.53  215.888
   2880.75  224.760
   2918.46  233.995
   2956.66  243.607
   2995.36  253.612
   3034.57  264.079
   3074.29  275.133
   3114.53  286.644
   3155.29  298.636
   3196.60  311.127
   3238.44  324.135
   3280.83  337.683
   3323.77  351.794
   3367.28  366.492
   3411.35  381.798
   3456.01  397.739
   3501.24  414.340
   3547.07  431.629
   3593.50  449.631
   3640.54  468.376
   3688.19  487.895
   3736.47  508.219
   3785.38  529.380
   3834.93  551.412
   3885.13  574.346
   3935.98  598.223
   3987.50  623.079
   4039.69  648.960
   4092.57  675.903
   4146.14  704.216
   4200.41  733.761
   4255.39  764.527
   4311.09  796.558
   4367.52  829.905
   4424.69  864.626
   4482.61  900.769
   4541.29  938.389
   4600.73  977.548
   4660.95  1018.30
   4721.96  1060.71
   4783.77  1104.84
   4846.39  1150.76
   4909.82  1198.54
   4974.09  1248.24
   5039.20  1299.95
   5105.16  1353.73
   5171.98  1409.67
   5239.68  1467.99
   5308.27  1529.02
   5377.75  1592.49
   5448.14  1658.50
   5519.45  1727.13
   5591.70  1798.46
   5664.89  1872.61
   5739.04  1949.67
   5814.17  2029.73
   5890.27  2112.90
   5967.37  2199.30
   6045.48  2289.03
   6124.61  2382.21
   6204.78  2478.94
   6286.00  2579.34
   6368.28  2683.89
   6451.64  2792.75
   6536.09  2905.68
   6621.64  3022.81
   6708.31  3144.24
   6796.12  3270.13
   6885.08  3400.59
   6975.20  3535.73
   7066.50  3675.69
   7159.00  3820.60
   7252.71  3970.56
   7347.64  4125.69
   7443.82  4286.13
   7541.26  4451.99
   7639.97  4623.37
   7739.97  4800.41
   7841.28  4983.21
   7943.92  5171.82
   8047.90  5366.52
   8153.25  5567.50
   8259.97  5774.63
   8368.09  5988.88
   8477.62  6210.36
   8588.59  6438.33
   8701.01  6672.83
   8814.90  6913.92
   8930.29  7161.64
   9047.18  7416.00
   9165.60  7676.95
   9285.58  7944.56
   9407.12  8218.76
   9530.25  8499.51
   9655.00  8786.74
   9781.38  9080.41
   9909.41  9380.38
   10039.1  9687.34
   10170.5  10002.3
   10303.7  10323.6
   10438.5  10651.1
   10575.2  10984.4
   10713.6  11323.6
   10853.8  11668.3
   10995.9  12018.4
   11139.8  12373.6
   11285.6  12733.6
   11433.4  13098.1
   11583.0  13466.8
   11734.6  13839.3
   11888.2  14215.3
   12043.8  14594.5
   12201.5  14976.4
   12361.2  15360.8
   12523.0  15749.3
   12686.9  16140.5
   12853.0  16532.8
   13021.2  16925.7
   13191.7  17318.7
   13364.3  17711.4
   13539.3  18103.4
   13716.5  18494.0
   13896.0  18882.7
   14077.9  19269.3
   14262.2  19653.1
   14448.9  20033.6
   14638.0  20410.5
   14829.6  20783.2
   15023.7  21153.5
   15220.4  21535.4
   15419.6  21913.2
   15621.5  22286.5
   15825.9  22655.1
   16033.1  23018.5
   16243.0  23376.5
   16455.6  23730.4
   16671.0  24079.0
   16889.2  24421.1
   17110.2  24756.4
   17334.2  25084.7
   17561.1  25405.9
   17791.0  25719.6
   18023.8  26025.8
   18259.8  26324.2
   18498.8  26614.6
   18740.9  26897.1
   18986.2  27171.4
   19234.8  27437.6
   19486.5  27695.6
   19741.6  27945.2
   20000.0  28186.6
