 Be Density=2.248, Angle=90.deg
 Photon Energy (eV), Atten Length (microns)
   30.0000  9.629911E-02
   30.3506  0.100357
   30.7053  0.104584
   31.0641  0.108990
   31.4271  0.113582
   31.7944  0.118368
   32.1659  0.123354
   32.5418  0.128551
   32.9221  0.133968
   33.3068  0.139612
   33.6960  0.145494
   34.0898  0.150977
   34.4882  0.156021
   34.8912  0.160492
   35.2990  0.165091
   35.7115  0.169822
   36.1288  0.174689
   36.5510  0.179695
   36.9781  0.184844
   37.4103  0.190141
   37.8474  0.195590
   38.2897  0.201195
   38.7372  0.206960
   39.1899  0.211261
   39.6478  0.213945
   40.1112  0.218116
   40.5799  0.221541
   41.0541  0.225367
   41.5339  0.230617
   42.0192  0.234958
   42.5103  0.239997
   43.0071  0.243986
   43.5096  0.249214
   44.0181  0.253452
   44.5325  0.258957
   45.0529  0.264376
   45.5794  0.270432
   46.1120  0.276528
   46.6509  0.281857
   47.1961  0.287185
   47.7476  0.292448
   48.3056  0.296774
   48.8701  0.299096
   49.4412  0.305017
   50.0190  0.308534
   50.6035  0.309792
   51.1948  0.311055
   51.7931  0.312323
   52.3983  0.314596
   53.0107  0.318144
   53.6302  0.322848
   54.2569  0.328953
   54.8909  0.333018
   55.5324  0.339153
   56.1814  0.345771
   56.8379  0.354216
   57.5021  0.361605
   58.1741  0.368372
   58.8539  0.376323
   59.5417  0.383226
   60.2375  0.388823
   60.9414  0.394454
   61.6536  0.400136
   62.3741  0.403734
   63.1030  0.409381
   63.8404  0.412894
   64.5864  0.417728
   65.3412  0.421271
   66.1048  0.426977
   66.8773  0.431173
   67.6588  0.436221
   68.4495  0.441751
   69.2494  0.447666
   70.0586  0.456416
   70.8773  0.462604
   71.7056  0.467939
   72.5436  0.473337
   73.3913  0.479034
   74.2490  0.484189
   75.1166  0.489112
   75.9944  0.493135
   76.8825  0.496702
   77.7810  0.500153
   78.6899  0.503314
   79.6095  0.506755
   80.5398  0.509577
   81.4810  0.512562
   82.4332  0.516324
   83.3965  0.520353
   84.3711  0.525814
   85.3571  0.531589
   86.3545  0.537435
   87.3637  0.544086
   88.3846  0.550972
   89.4175  0.558038
   90.4624  0.565257
   91.5196  0.572590
   92.5891  0.580022
   93.6711  0.587446
   94.7657  0.594461
   95.8732  0.601528
   96.9935  0.608673
   98.1270  0.614244
   99.2737  0.622269
   100.434  0.630020
   101.608  0.637786
   102.795  0.644884
   103.996  0.651214
   105.211  0.661449
   106.441  0.668695
   107.685  0.666539
   108.943  0.651813
   110.216  0.609982
   111.504  0.512161
   112.807  4.799987E-02
   114.126  3.187189E-02
   115.459  3.507942E-02
   116.809  3.213436E-02
   118.174  2.359510E-02
   119.555  2.395858E-02
   120.952  2.315231E-02
   122.365  2.125514E-02
   123.795  2.083478E-02
   125.242  1.844873E-02
   126.705  1.844315E-02
   128.186  2.327760E-02
   129.684  3.040234E-02
   131.200  3.879821E-02
   132.733  4.281907E-02
   134.284  4.348625E-02
   135.853  4.399085E-02
   137.441  4.513141E-02
   139.047  4.650974E-02
   140.672  4.680432E-02
   142.316  4.658782E-02
   143.979  4.704930E-02
   145.661  4.783644E-02
   147.364  4.814305E-02
   149.086  4.806104E-02
   150.828  4.819917E-02
   152.590  4.844663E-02
   154.374  4.834208E-02
   156.178  4.776058E-02
   158.003  4.723014E-02
   159.849  4.764749E-02
   161.717  4.880823E-02
   163.607  5.159714E-02
   165.519  5.531419E-02
   167.453  5.908351E-02
   169.410  6.265732E-02
   171.390  6.478184E-02
   173.393  6.721921E-02
   175.419  6.949032E-02
   177.469  7.279778E-02
   179.543  7.625079E-02
   181.641  7.781487E-02
   183.764  7.968288E-02
   185.911  8.127166E-02
   188.084  8.308966E-02
   190.282  8.385808E-02
   192.505  8.542213E-02
   194.755  8.772234E-02
   197.031  8.942304E-02
   199.333  9.086092E-02
   201.663  9.265336E-02
   204.019  9.392223E-02
   206.403  9.593012E-02
   208.816  9.860221E-02
   211.256  0.101159
   213.724  0.104240
   216.222  0.106869
   218.749  0.110024
   221.305  0.112601
   223.891  0.116028
   226.508  0.118721
   229.155  0.123734
   231.833  0.128934
   234.542  0.134183
   237.283  0.138240
   240.056  0.141991
   242.861  0.146120
   245.699  0.150369
   248.570  0.152455
   251.475  0.155446
   254.414  0.160293
   257.387  0.165318
   260.395  0.170501
   263.438  0.175847
   266.516  0.181360
   269.631  0.187047
   272.782  0.192911
   275.969  0.198960
   279.194  0.205198
   282.457  0.211632
   285.758  0.218267
   289.097  0.225110
   292.476  0.232168
   295.894  0.239448
   299.351  0.246955
   302.850  0.254698
   306.389  0.262684
   309.969  0.270918
   313.592  0.279414
   317.256  0.288069
   320.964  0.296933
   324.714  0.306070
   328.509  0.315487
   332.348  0.325193
   336.232  0.335200
   340.161  0.345513
   344.136  0.356145
   348.158  0.367104
   352.226  0.378398
   356.342  0.390041
   360.507  0.402043
   364.720  0.414414
   368.982  0.427164
   373.294  0.440309
   377.656  0.453857
   382.069  0.467822
   386.534  0.482217
   391.051  0.497509
   395.621  0.513494
   400.244  0.529994
   404.922  0.547522
   409.654  0.565668
   414.441  0.584417
   419.284  0.603786
   424.184  0.623799
   429.141  0.644474
   434.156  0.665834
   439.229  0.687902
   444.362  0.710701
   449.555  0.734257
   454.808  0.758592
   460.123  0.783735
   465.500  0.809712
   470.940  0.836549
   476.444  0.864276
   482.011  0.892920
   487.644  0.922514
   493.343  0.953092
   499.108  0.984681
   504.941  1.01732
   510.841  1.05103
   516.811  1.08587
   522.851  1.12186
   528.961  1.15904
   535.142  1.19746
   541.396  1.23715
   547.723  1.27815
   554.123  1.32051
   560.599  1.36428
   567.150  1.41055
   573.778  1.45848
   580.483  1.50803
   587.266  1.55927
   594.129  1.61225
   601.072  1.66703
   608.096  1.72367
   615.203  1.78223
   622.392  1.84279
   629.665  1.90540
   637.024  1.97013
   644.468  2.04062
   651.999  2.11412
   659.618  2.19027
   667.327  2.26916
   675.125  2.34760
   683.015  2.42589
   690.996  2.50373
   699.071  2.58407
   707.241  2.67035
   715.506  2.76188
   723.867  2.85656
   732.326  2.95599
   740.884  3.05919
   749.542  3.16601
   758.301  3.27656
   767.163  3.39096
   776.128  3.50936
   785.198  3.63188
   794.374  3.75870
   803.657  3.88993
   813.048  4.02573
   822.550  4.16629
   832.162  4.31178
   841.887  4.46234
   851.725  4.61812
   861.678  4.77936
   871.748  4.94623
   881.935  5.11866
   892.242  5.29634
   902.668  5.48017
   913.217  5.67040
   923.889  5.86724
   934.686  6.07087
   945.608  6.28389
   956.659  6.50523
   967.838  6.73436
   979.148  6.97153
   990.591  7.21709
   1002.17  7.47131
   1013.88  7.73443
   1025.73  8.00684
   1037.71  8.28886
   1049.84  8.58080
   1062.11  8.88313
   1074.52  9.19602
   1087.08  9.51990
   1099.78  9.85520
   1112.63  10.2022
   1125.64  10.5615
   1138.79  10.9336
   1152.10  11.3187
   1165.56  11.7174
   1179.18  12.1301
   1192.96  12.5572
   1206.90  12.9994
   1221.01  13.4573
   1235.28  13.9313
   1249.71  14.4219
   1264.31  14.9299
   1279.09  15.4557
   1294.04  16.0000
   1309.16  16.5636
   1324.46  17.1469
   1339.94  17.7508
   1355.59  18.3760
   1371.44  19.0236
   1387.46  19.6942
   1403.68  20.3886
   1420.08  21.1072
   1436.68  21.8512
   1453.46  22.6214
   1470.45  23.4189
   1487.63  24.2442
   1505.02  25.0987
   1522.61  25.9894
   1540.40  26.9255
   1558.40  27.8950
   1576.61  28.8994
   1595.04  29.9401
   1613.68  31.0181
   1632.53  32.1349
   1651.61  33.2919
   1670.91  34.4906
   1690.44  35.7327
   1710.19  37.0193
   1730.18  38.3520
   1750.40  39.7328
   1770.85  41.1633
   1791.55  42.6453
   1812.48  44.1805
   1833.66  45.7708
   1855.09  47.4183
   1876.77  49.1252
   1898.70  50.8935
   1920.89  52.7253
   1943.34  54.6228
   1966.05  56.5886
   1989.02  58.6253
   2012.27  60.7353
   2035.78  62.9414
   2059.57  65.2535
   2083.64  67.6507
   2107.99  70.1356
   2132.62  72.7116
   2157.55  75.3824
   2182.76  78.1507
   2208.27  81.0207
   2234.07  83.9960
   2260.18  87.0800
   2286.59  90.2779
   2313.31  93.5926
   2340.35  97.0279
   2367.70  100.590
   2395.37  104.282
   2423.36  108.110
   2451.68  112.077
   2480.33  116.190
   2509.31  120.454
   2538.64  124.873
   2568.30  129.454
   2598.32  134.202
   2628.68  139.124
   2659.40  144.227
   2690.48  149.515
   2721.92  154.997
   2753.73  160.679
   2785.91  166.569
   2818.46  172.673
   2851.40  179.000
   2884.72  185.558
   2918.43  192.354
   2952.54  199.398
   2987.04  206.699
   3021.95  214.268
   3057.26  222.251
   3092.99  230.543
   3129.14  239.141
   3165.70  248.059
   3202.70  257.307
   3240.12  266.897
   3277.99  276.841
   3316.29  287.154
   3355.05  297.849
   3394.26  308.940
   3433.92  320.441
   3474.05  332.365
   3514.65  344.731
   3555.72  357.552
   3597.27  370.845
   3639.31  384.627
   3681.84  398.916
   3724.87  413.731
   3768.40  429.090
   3812.43  445.012
   3856.99  461.516
   3902.06  478.625
   3947.66  496.361
   3993.79  514.744
   4040.46  533.804
   4087.68  553.561
   4135.45  574.203
   4183.77  595.682
   4232.67  617.951
   4282.13  641.039
   4332.17  664.973
   4382.80  689.785
   4434.01  715.505
   4485.83  742.165
   4538.25  769.796
   4591.29  798.434
   4644.94  828.115
   4699.22  858.870
   4754.14  890.738
   4809.69  923.759
   4865.90  957.971
   4922.76  993.417
   4980.29  1030.14
   5038.49  1068.17
   5097.37  1107.57
   5156.94  1148.38
   5217.20  1190.63
   5278.17  1234.78
   5339.85  1280.51
   5402.25  1327.86
   5465.38  1376.90
   5529.25  1427.68
   5593.87  1480.23
   5659.24  1534.64
   5725.37  1590.95
   5792.28  1649.22
   5859.97  1709.51
   5928.45  1771.89
   5997.73  1836.41
   6067.82  1903.16
   6138.73  1972.19
   6210.46  2043.56
   6283.04  2117.34
   6356.46  2193.82
   6430.75  2273.19
   6505.90  2355.22
   6581.92  2439.96
   6658.84  2527.51
   6736.66  2617.91
   6815.38  2711.27
   6895.02  2807.64
   6975.60  2907.09
   7057.12  3009.70
   7139.59  3115.56
   7223.02  3224.72
   7307.43  3337.24
   7392.82  3453.21
   7479.22  3572.69
   7566.62  3695.75
   7655.04  3822.46
   7744.50  3952.91
   7835.00  4087.12
   7926.56  4225.15
   8019.19  4367.11
   8112.91  4513.23
   8207.71  4663.39
   8303.63  4817.59
   8400.67  4977.09
   8498.84  5140.92
   8598.15  5309.01
   8698.63  5481.39
   8800.29  5658.09
   8903.13  5839.15
   9007.17  6024.55
   9112.43  6214.29
   9218.91  6408.38
   9326.65  6606.83
   9435.64  6809.59
   9545.90  7016.65
   9657.46  7227.94
   9770.32  7443.46
   9884.49  7663.12
   10000.0  7886.88
