 Be Density=2.048, Angle=90.deg
 Photon Energy (eV), Atten Length (microns)
   30.0000  0.105703
   30.3927  0.110701
   30.7905  0.115934
   31.1935  0.121414
   31.6019  0.127154
   32.0155  0.133165
   32.4346  0.139461
   32.8591  0.146054
   33.2892  0.152959
   33.7250  0.160190
   34.1664  0.166819
   34.6136  0.172777
   35.0667  0.178328
   35.5257  0.184057
   35.9907  0.189971
   36.4618  0.196075
   36.9391  0.202375
   37.4226  0.208877
   37.9125  0.215589
   38.4087  0.222515
   38.9115  0.229595
   39.4208  0.233020
   39.9368  0.237657
   40.4596  0.242289
   40.9891  0.246865
   41.5257  0.253033
   42.0692  0.258384
   42.6199  0.264335
   43.1778  0.269992
   43.7429  0.275901
   44.3155  0.281430
   44.8956  0.288004
   45.4832  0.295587
   46.0786  0.303171
   46.6817  0.309718
   47.2928  0.316269
   47.9118  0.322455
   48.5390  0.326810
   49.1743  0.331203
   49.8180  0.337773
   50.4701  0.339731
   51.1307  0.341282
   51.8000  0.342839
   52.4780  0.345820
   53.1649  0.350195
   53.8608  0.357082
   54.5658  0.363528
   55.2801  0.369757
   56.0037  0.377049
   56.7367  0.387371
   57.4794  0.396725
   58.2318  0.405201
   58.9940  0.414737
   59.7662  0.422631
   60.5485  0.429497
   61.3411  0.437191
   62.1440  0.441901
   62.9574  0.448104
   63.7815  0.453043
   64.6164  0.458676
   65.4622  0.463298
   66.3190  0.469953
   67.1871  0.475407
   68.0666  0.481787
   68.9575  0.489014
   69.8601  0.498455
   70.7746  0.507053
   71.7010  0.513603
   72.6395  0.520542
   73.5903  0.526812
   74.5536  0.533628
   75.5294  0.539346
   76.5181  0.543354
   77.5197  0.547538
   78.5344  0.551553
   79.5623  0.556085
   80.6038  0.559553
   81.6588  0.563178
   82.7277  0.568100
   83.8106  0.573528
   84.9076  0.580641
   86.0190  0.587715
   87.1450  0.595637
   88.2857  0.604037
   89.4413  0.612714
   90.6120  0.621594
   91.7981  0.630629
   92.9997  0.639800
   94.2170  0.648654
   95.4502  0.657312
   96.6996  0.666055
   97.9654  0.673623
   99.2477  0.682798
   100.547  0.691914
   101.863  0.702172
   103.196  0.710418
   104.547  0.719782
   105.916  0.731145
   107.302  0.732916
   108.706  0.718708
   110.129  0.674810
   111.571  0.536486
   113.031  3.733491E-02
   114.511  3.851344E-02
   116.010  3.692380E-02
   117.528  3.019067E-02
   119.067  2.638229E-02
   120.625  2.521803E-02
   122.204  2.325783E-02
   123.804  2.284794E-02
   125.424  1.988940E-02
   127.066  2.093128E-02
   128.729  2.806364E-02
   130.414  3.752413E-02
   132.121  4.582023E-02
   133.851  4.766718E-02
   135.603  4.824857E-02
   137.378  4.947260E-02
   139.176  5.113038E-02
   140.998  5.125020E-02
   142.843  5.122390E-02
   144.713  5.200060E-02
   146.607  5.290402E-02
   148.526  5.267873E-02
   150.470  5.274477E-02
   152.440  5.320976E-02
   154.435  5.305262E-02
   156.457  5.232874E-02
   158.505  5.197942E-02
   160.579  5.264550E-02
   162.681  5.485075E-02
   164.811  5.920326E-02
   166.968  6.383411E-02
   169.154  6.829695E-02
   171.368  7.109015E-02
   173.611  7.413751E-02
   175.883  7.709033E-02
   178.185  8.173287E-02
   180.518  8.475304E-02
   182.881  8.676352E-02
   185.275  8.871062E-02
   187.700  9.075055E-02
   190.157  9.194241E-02
   192.646  9.386121E-02
   195.167  9.652013E-02
   197.722  9.880429E-02
   200.310  0.100696
   202.932  0.102441
   205.588  0.104476
   208.279  0.107563
   211.006  0.110686
   213.768  0.114473
   216.566  0.117743
   219.400  0.121648
   222.272  0.124953
   225.182  0.128329
   228.129  0.133357
   231.115  0.139269
   234.140  0.146419
   237.205  0.151553
   240.310  0.156480
   243.456  0.161159
   246.642  0.165795
   249.871  0.168049
   253.141  0.173618
   256.455  0.179723
   259.812  0.186040
   263.213  0.192582
   266.658  0.199353
   270.148  0.206362
   273.685  0.213618
   277.267  0.221129
   280.896  0.228904
   284.573  0.236951
   288.298  0.245282
   292.072  0.253906
   295.895  0.262834
   299.768  0.272074
   303.692  0.281641
   307.667  0.291543
   311.694  0.301793
   315.774  0.312362
   319.907  0.323139
   324.095  0.334290
   328.337  0.345823
   332.635  0.357754
   336.989  0.370098
   341.400  0.382867
   345.868  0.396078
   350.396  0.409744
   354.982  0.423881
   359.629  0.438507
   364.336  0.453638
   369.105  0.469288
   373.936  0.485482
   378.831  0.502233
   383.790  0.519562
   388.813  0.537629
   393.903  0.557001
   399.059  0.577072
   404.282  0.598331
   409.574  0.620572
   414.935  0.643638
   420.367  0.667563
   425.869  0.692380
   431.443  0.718115
   437.091  0.744808
   442.812  0.772493
   448.608  0.801208
   454.480  0.830989
   460.429  0.861878
   466.456  0.893916
   472.562  0.927143
   478.747  0.961607
   485.014  0.997348
   491.363  1.03442
   497.794  1.07287
   504.310  1.11275
   510.911  1.15412
   517.599  1.19702
   524.374  1.24151
   531.238  1.28766
   538.191  1.33552
   545.236  1.38517
   552.373  1.43666
   559.603  1.49005
   566.928  1.54656
   574.349  1.60549
   581.867  1.66667
   589.483  1.73018
   597.199  1.79612
   605.016  1.86456
   612.936  1.93562
   620.959  2.00938
   629.087  2.08595
   637.321  2.16544
   645.663  2.25258
   654.115  2.34359
   662.677  2.43827
   671.351  2.53556
   680.139  2.63239
   689.041  2.72715
   698.061  2.82528
   707.198  2.93061
   716.455  3.04327
   725.833  3.16041
   735.334  3.28417
   744.959  3.41279
   754.710  3.54644
   764.589  3.68533
   774.597  3.82965
   784.736  3.97963
   795.008  4.13549
   805.414  4.29743
   815.956  4.46572
   826.637  4.64061
   837.457  4.82237
   848.419  5.01121
   859.524  5.20745
   870.775  5.41138
   882.173  5.62298
   893.720  5.84191
   905.419  6.06932
   917.270  6.30563
   929.277  6.55113
   941.441  6.80735
   953.764  7.07631
   966.248  7.35588
   978.896  7.64646
   991.709  7.94855
   1004.69  8.26259
   1017.84  8.58897
   1031.16  8.92829
   1044.66  9.28101
   1058.34  9.64774
   1072.19  10.0289
   1086.22  10.4251
   1100.44  10.8370
   1114.85  11.2650
   1129.44  11.7100
   1144.22  12.1727
   1159.20  12.6536
   1174.37  13.1536
   1189.74  13.6730
   1205.32  14.2132
   1221.09  14.7747
   1237.08  15.3584
   1253.27  15.9651
   1269.68  16.5958
   1286.29  17.2513
   1303.13  17.9328
   1320.19  18.6412
   1337.47  19.3776
   1354.98  20.1431
   1372.71  20.9394
   1390.68  21.7674
   1408.88  22.6281
   1427.33  23.5227
   1446.01  24.4526
   1464.94  25.4196
   1484.11  26.4245
   1503.54  27.4691
   1523.22  28.5624
   1543.16  29.7163
   1563.36  30.9165
   1583.82  32.1653
   1604.55  33.4645
   1625.55  34.8160
   1646.83  36.2220
   1668.39  37.6850
   1690.23  39.2073
   1712.35  40.7907
   1734.76  42.4380
   1757.47  44.1518
   1780.48  45.9349
   1803.78  47.7898
   1827.39  49.7194
   1851.31  51.7269
   1875.54  53.8154
   1900.09  55.9883
   1924.97  58.2487
   1950.16  60.6001
   1975.69  63.0465
   2001.55  65.5917
   2027.75  68.2451
   2054.29  71.0571
   2081.18  73.9854
   2108.42  77.0337
   2136.02  80.2076
   2163.98  83.5123
   2192.31  86.9526
   2221.00  90.5345
   2250.07  94.2635
   2279.53  98.1464
   2309.36  102.189
   2339.59  106.397
   2370.22  110.778
   2401.24  115.340
   2432.67  120.088
   2464.51  125.031
   2496.77  130.178
   2529.46  135.536
   2562.56  141.113
   2596.11  146.919
   2630.09  152.964
   2664.52  159.257
   2699.39  165.807
   2734.73  172.627
   2770.52  179.725
   2806.79  187.114
   2843.53  194.805
   2880.75  202.811
   2918.46  211.144
   2956.66  219.817
   2995.36  228.845
   3034.57  238.290
   3074.29  248.264
   3114.53  258.651
   3155.29  269.473
   3196.60  280.743
   3238.44  292.482
   3280.83  304.706
   3323.77  317.439
   3367.28  330.701
   3411.35  344.513
   3456.01  358.897
   3501.24  373.878
   3547.07  389.478
   3593.50  405.722
   3640.54  422.636
   3688.19  440.249
   3736.47  458.589
   3785.38  477.683
   3834.93  497.563
   3885.13  518.258
   3935.98  539.802
   3987.50  562.231
   4039.69  585.585
   4092.57  609.896
   4146.14  635.445
   4200.41  662.105
   4255.39  689.866
   4311.09  718.769
   4367.52  748.860
   4424.69  780.190
   4482.61  812.803
   4541.29  846.749
   4600.73  882.084
   4660.95  918.860
   4721.96  957.127
   4783.77  996.947
   4846.39  1038.38
   4909.82  1081.50
   4974.09  1126.34
   5039.20  1173.00
   5105.16  1221.53
   5171.98  1272.00
   5239.68  1324.63
   5308.27  1379.70
   5377.75  1436.98
   5448.14  1496.54
   5519.45  1558.46
   5591.70  1622.83
   5664.89  1689.73
   5739.04  1759.27
   5814.17  1831.51
   5890.27  1906.56
   5967.37  1984.52
   6045.48  2065.49
   6124.61  2149.57
   6204.78  2236.86
   6286.00  2327.45
   6368.28  2421.79
   6451.64  2520.02
   6536.09  2621.92
   6621.64  2727.61
   6708.31  2837.19
   6796.12  2950.78
   6885.08  3068.50
   6975.20  3190.44
   7066.50  3316.73
   7159.00  3447.50
   7252.71  3582.81
   7347.64  3722.79
   7443.82  3867.56
   7541.26  4017.22
   7639.97  4171.87
   7739.97  4331.62
   7841.28  4496.57
   7943.92  4666.76
   8047.90  4842.44
   8153.25  5023.80
   8259.97  5210.70
   8368.09  5404.03
   8477.62  5603.88
   8588.59  5809.59
   8701.01  6021.19
   8814.90  6238.73
   8930.29  6462.26
   9047.18  6691.78
   9165.60  6927.25
   9285.58  7168.72
   9407.12  7416.15
   9530.25  7669.48
   9655.00  7928.66
   9781.38  8193.65
   9909.41  8464.33
   10039.1  8741.31
   10170.5  9025.54
   10303.7  9315.47
   10438.5  9610.92
   10575.2  9911.74
   10713.6  10217.8
   10853.8  10528.8
   10995.9  10844.8
   11139.8  11165.3
   11285.6  11490.1
   11433.4  11819.0
   11583.0  12151.6
   11734.6  12487.8
   11888.2  12827.1
   12043.8  13169.3
   12201.5  13513.8
   12361.2  13860.7
   12523.0  14211.3
   12686.9  14564.3
   12853.0  14918.3
   13021.2  15272.8
   13191.7  15627.4
   13364.3  15981.8
   13539.3  16335.4
   13716.5  16687.9
   13896.0  17038.7
   14077.9  17387.5
   14262.2  17733.8
   14448.9  18077.2
   14638.0  18417.3
   14829.6  18753.6
   15023.7  19087.7
   15220.4  19432.3
   15419.6  19773.2
   15621.5  20110.1
   15825.9  20442.7
   16033.1  20770.6
   16243.0  21093.6
   16455.6  21413.0
   16671.0  21727.5
   16889.2  22036.2
   17110.2  22338.7
   17334.2  22635.1
   17561.1  22924.9
   17791.0  23208.0
   18023.8  23484.2
   18259.8  23753.4
   18498.8  24015.6
   18740.9  24270.4
   18986.2  24518.0
   19234.8  24758.2
   19486.5  24990.9
   19741.6  25216.2
   20000.0  25434.0
