 Be Density=2.248, Angle=90.deg
 Photon Energy (eV), Atten Length (microns)
   30.0000  9.629911E-02
   30.3927  0.100852
   30.7905  0.105619
   31.1935  0.110612
   31.6019  0.115842
   32.0155  0.121318
   32.4346  0.127053
   32.8591  0.133060
   33.2892  0.139350
   33.7250  0.145938
   34.1664  0.151977
   34.6136  0.157405
   35.0667  0.162462
   35.5257  0.167682
   35.9907  0.173070
   36.4618  0.178631
   36.9391  0.184370
   37.4226  0.190294
   37.9125  0.196408
   38.4087  0.202719
   38.9115  0.209168
   39.4208  0.212289
   39.9368  0.216513
   40.4596  0.220733
   40.9891  0.224902
   41.5257  0.230521
   42.0692  0.235397
   42.6199  0.240817
   43.1778  0.245972
   43.7429  0.251355
   44.3155  0.256391
   44.8956  0.262381
   45.4832  0.269290
   46.0786  0.276198
   46.6817  0.282163
   47.2928  0.288131
   47.9118  0.293767
   48.5390  0.297735
   49.1743  0.301737
   49.8180  0.307722
   50.4701  0.309506
   51.1307  0.310918
   51.8000  0.312337
   52.4780  0.315053
   53.1649  0.319039
   53.8608  0.325313
   54.5658  0.331186
   55.2801  0.336861
   56.0037  0.343504
   56.7367  0.352907
   57.4794  0.361429
   58.2318  0.369151
   58.9940  0.377839
   59.7662  0.385030
   60.5485  0.391285
   61.3411  0.398295
   62.1440  0.402586
   62.9574  0.408237
   63.7815  0.412737
   64.6164  0.417869
   65.4622  0.422079
   66.3190  0.428142
   67.1871  0.433111
   68.0666  0.438924
   68.9575  0.445507
   69.8601  0.454108
   70.7746  0.461942
   71.7010  0.467909
   72.6395  0.474231
   73.5903  0.479943
   74.5536  0.486152
   75.5294  0.491362
   76.5181  0.495013
   77.5197  0.498824
   78.5344  0.502482
   79.5623  0.506611
   80.6038  0.509771
   81.6588  0.513074
   82.7277  0.517557
   83.8106  0.522502
   84.9076  0.528982
   86.0190  0.535427
   87.1450  0.542644
   88.2857  0.550298
   89.4413  0.558202
   90.6120  0.566292
   91.7981  0.574524
   92.9997  0.582878
   94.2170  0.590945
   95.4502  0.598833
   96.6996  0.606798
   97.9654  0.613692
   99.2477  0.622051
   100.547  0.630356
   101.863  0.639701
   103.196  0.647213
   104.547  0.655745
   105.916  0.666097
   107.302  0.667710
   108.706  0.654766
   110.129  0.614773
   111.571  0.488756
   113.031  3.401330E-02
   114.511  3.508699E-02
   116.010  3.363876E-02
   117.528  2.750467E-02
   119.067  2.403511E-02
   120.625  2.297444E-02
   122.204  2.118863E-02
   123.804  2.081521E-02
   125.424  1.811989E-02
   127.066  1.906907E-02
   128.729  2.556688E-02
   130.414  3.418569E-02
   132.121  4.174370E-02
   133.851  4.342633E-02
   135.603  4.395600E-02
   137.378  4.507113E-02
   139.176  4.658142E-02
   140.998  4.669058E-02
   142.843  4.666662E-02
   144.713  4.737422E-02
   146.607  4.819727E-02
   148.526  4.799202E-02
   150.470  4.805218E-02
   152.440  4.847580E-02
   154.435  4.833265E-02
   156.457  4.767316E-02
   158.505  4.735493E-02
   160.579  4.796174E-02
   162.681  4.997079E-02
   164.811  5.393607E-02
   166.968  5.815493E-02
   169.154  6.222072E-02
   171.368  6.476542E-02
   173.611  6.754165E-02
   175.883  7.023177E-02
   178.185  7.446127E-02
   180.518  7.721276E-02
   182.881  7.904436E-02
   185.275  8.081822E-02
   187.700  8.267667E-02
   190.157  8.376250E-02
   192.646  8.551057E-02
   195.167  8.793295E-02
   197.722  9.001388E-02
   200.310  9.173708E-02
   202.932  9.332749E-02
   205.588  9.518109E-02
   208.279  9.799302E-02
   211.006  0.100839
   213.768  0.104288
   216.566  0.107267
   219.400  0.110826
   222.272  0.113837
   225.182  0.116912
   228.129  0.121493
   231.115  0.126878
   234.140  0.133392
   237.205  0.138070
   240.310  0.142559
   243.456  0.146821
   246.642  0.151045
   249.871  0.153098
   253.141  0.158172
   256.455  0.163733
   259.812  0.169488
   263.213  0.175448
   266.658  0.181617
   270.148  0.188002
   273.685  0.194613
   277.267  0.201456
   280.896  0.208539
   284.573  0.215870
   288.298  0.223459
   292.072  0.231316
   295.895  0.239450
   299.768  0.247868
   303.692  0.256584
   307.667  0.265605
   311.694  0.274943
   315.774  0.284572
   319.907  0.294390
   324.095  0.304549
   328.337  0.315056
   332.635  0.325925
   336.989  0.337171
   341.400  0.348804
   345.868  0.360840
   350.396  0.373290
   354.982  0.386169
   359.629  0.399494
   364.336  0.413279
   369.105  0.427537
   373.936  0.442289
   378.831  0.457550
   383.790  0.473338
   388.813  0.489797
   393.903  0.507446
   399.059  0.525731
   404.282  0.545099
   409.574  0.565361
   414.935  0.586375
   420.367  0.608172
   425.869  0.630780
   431.443  0.654226
   437.091  0.678544
   442.812  0.703766
   448.608  0.729926
   454.480  0.757058
   460.429  0.785199
   466.456  0.814386
   472.562  0.844657
   478.747  0.876055
   485.014  0.908617
   491.363  0.942393
   497.794  0.977423
   504.310  1.01375
   510.911  1.05144
   517.599  1.09052
   524.374  1.13106
   531.238  1.17310
   538.191  1.21670
   545.236  1.26193
   552.373  1.30884
   559.603  1.35749
   566.928  1.40896
   574.349  1.46266
   581.867  1.51839
   589.483  1.57625
   597.199  1.63632
   605.016  1.69868
   612.936  1.76341
   620.959  1.83061
   629.087  1.90037
   637.321  1.97278
   645.663  2.05217
   654.115  2.13508
   662.677  2.22135
   671.351  2.30997
   680.139  2.39819
   689.041  2.48452
   698.061  2.57393
   707.198  2.66988
   716.455  2.77252
   725.833  2.87924
   735.334  2.99198
   744.959  3.10916
   754.710  3.23092
   764.589  3.35746
   774.597  3.48894
   784.736  3.62557
   795.008  3.76757
   805.414  3.91510
   815.956  4.06841
   826.637  4.22774
   837.457  4.39334
   848.419  4.56537
   859.524  4.74416
   870.775  4.92994
   882.173  5.12271
   893.720  5.32217
   905.419  5.52935
   917.270  5.74464
   929.277  5.96829
   941.441  6.20172
   953.764  6.44675
   966.248  6.70145
   978.896  6.96617
   991.709  7.24139
   1004.69  7.52748
   1017.84  7.82483
   1031.16  8.13396
   1044.66  8.45530
   1058.34  8.78940
   1072.19  9.13669
   1086.22  9.49763
   1100.44  9.87283
   1114.85  10.2628
   1129.44  10.6682
   1144.22  11.0897
   1159.20  11.5279
   1174.37  11.9833
   1189.74  12.4566
   1205.32  12.9486
   1221.09  13.4602
   1237.08  13.9920
   1253.27  14.5447
   1269.68  15.1193
   1286.29  15.7165
   1303.13  16.3374
   1320.19  16.9828
   1337.47  17.6537
   1354.98  18.3510
   1372.71  19.0764
   1390.68  19.8308
   1408.88  20.6149
   1427.33  21.4300
   1446.01  22.2771
   1464.94  23.1580
   1484.11  24.0736
   1503.54  25.0252
   1523.22  26.0212
   1543.16  27.0725
   1563.36  28.1660
   1583.82  29.3036
   1604.55  30.4872
   1625.55  31.7185
   1646.83  32.9994
   1668.39  34.3322
   1690.23  35.7191
   1712.35  37.1617
   1734.76  38.6624
   1757.47  40.2237
   1780.48  41.8481
   1803.78  43.5380
   1827.39  45.2960
   1851.31  47.1248
   1875.54  49.0276
   1900.09  51.0072
   1924.97  53.0664
   1950.16  55.2086
   1975.69  57.4374
   2001.55  59.7561
   2027.75  62.1735
   2054.29  64.7353
   2081.18  67.4030
   2108.42  70.1802
   2136.02  73.0717
   2163.98  76.0824
   2192.31  79.2166
   2221.00  82.4798
   2250.07  85.8771
   2279.53  89.4145
   2309.36  93.0975
   2339.59  96.9307
   2370.22  100.923
   2401.24  105.078
   2432.67  109.404
   2464.51  113.908
   2496.77  118.596
   2529.46  123.478
   2562.56  128.559
   2596.11  133.848
   2630.09  139.355
   2664.52  145.088
   2699.39  151.055
   2734.73  157.268
   2770.52  163.735
   2806.79  170.467
   2843.53  177.474
   2880.75  184.767
   2918.46  192.359
   2956.66  200.260
   2995.36  208.485
   3034.57  217.090
   3074.29  226.177
   3114.53  235.640
   3155.29  245.498
   3196.60  255.766
   3238.44  266.460
   3280.83  277.597
   3323.77  289.197
   3367.28  301.280
   3411.35  313.863
   3456.01  326.967
   3501.24  340.614
   3547.07  354.827
   3593.50  369.626
   3640.54  385.035
   3688.19  401.081
   3736.47  417.789
   3785.38  435.184
   3834.93  453.296
   3885.13  472.149
   3935.98  491.777
   3987.50  512.211
   4039.69  533.487
   4092.57  555.635
   4146.14  578.911
   4200.41  603.199
   4255.39  628.490
   4311.09  654.821
   4367.52  682.235
   4424.69  710.778
   4482.61  740.489
   4541.29  771.416
   4600.73  803.607
   4660.95  837.111
   4721.96  871.973
   4783.77  908.251
   4846.39  946.001
   4909.82  985.277
   4974.09  1026.13
   5039.20  1068.64
   5105.16  1112.86
   5171.98  1158.84
   5239.68  1206.78
   5308.27  1256.95
   5377.75  1309.13
   5448.14  1363.39
   5519.45  1419.81
   5591.70  1478.45
   5664.89  1539.40
   5739.04  1602.75
   5814.17  1668.56
   5890.27  1736.94
   5967.37  1807.96
   6045.48  1881.73
   6124.61  1958.33
   6204.78  2037.85
   6286.00  2120.39
   6368.28  2206.33
   6451.64  2295.82
   6536.09  2388.65
   6621.64  2484.94
   6708.31  2584.77
   6796.12  2688.26
   6885.08  2795.50
   6975.20  2906.60
   7066.50  3021.65
   7159.00  3140.78
   7252.71  3264.06
   7347.64  3391.58
   7443.82  3523.47
   7541.26  3659.82
   7639.97  3800.70
   7739.97  3946.25
   7841.28  4096.52
   7943.92  4251.57
   8047.90  4411.62
   8153.25  4576.84
   8259.97  4747.11
   8368.09  4923.25
   8477.62  5105.32
   8588.59  5292.72
   8701.01  5485.50
   8814.90  5683.68
   8930.29  5887.33
   9047.18  6096.42
   9165.60  6310.95
   9285.58  6530.94
   9407.12  6756.35
   9530.25  6987.14
   9655.00  7223.26
   9781.38  7464.68
   9909.41  7711.27
   10039.1  7963.61
   10170.5  8222.56
   10303.7  8486.69
   10438.5  8755.86
   10575.2  9029.92
   10713.6  9308.74
   10853.8  9592.12
   10995.9  9879.93
   11139.8  10171.9
   11285.6  10467.8
   11433.4  10767.5
   11583.0  11070.5
   11734.6  11376.8
   11888.2  11685.9
   12043.8  11997.6
   12201.5  12311.5
   12361.2  12627.5
   12523.0  12947.0
   12686.9  13268.5
   12853.0  13591.0
   13021.2  13914.0
   13191.7  14237.1
   13364.3  14559.9
   13539.3  14882.1
   13716.5  15203.2
   13896.0  15522.8
   14077.9  15840.6
   14262.2  16156.1
   14448.9  16468.9
   14638.0  16778.8
   14829.6  17085.2
   15023.7  17389.6
   15220.4  17703.5
   15419.6  18014.0
   15621.5  18320.9
   15825.9  18623.9
   16033.1  18922.7
   16243.0  19217.0
   16455.6  19507.9
   16671.0  19794.5
   16889.2  20075.7
   17110.2  20351.3
   17334.2  20621.3
   17561.1  20885.3
   17791.0  21143.2
   18023.8  21394.8
   18259.8  21640.2
   18498.8  21878.9
   18740.9  22111.1
   18986.2  22336.7
   19234.8  22555.5
   19486.5  22767.5
   19741.6  22972.8
   20000.0  23171.2
