 Be Density=2.448, Angle=90.deg
 Photon Energy (eV), Atten Length (microns)
   30.0000  8.843154E-02
   30.3506  9.215745E-02
   30.7053  9.603975E-02
   31.0641  0.100086
   31.4271  0.104303
   31.7944  0.108697
   32.1659  0.113276
   32.5418  0.118049
   32.9221  0.123022
   33.3068  0.128206
   33.6960  0.133607
   34.0898  0.138642
   34.4882  0.143274
   34.8912  0.147380
   35.2990  0.151603
   35.7115  0.155948
   36.1288  0.160417
   36.5510  0.165014
   36.9781  0.169742
   37.4103  0.174606
   37.8474  0.179611
   38.2897  0.184757
   38.7372  0.190052
   39.1899  0.194001
   39.6478  0.196466
   40.1112  0.200296
   40.5799  0.203442
   41.0541  0.206955
   41.5339  0.211775
   42.0192  0.215762
   42.5103  0.220390
   43.0071  0.224053
   43.5096  0.228853
   44.0181  0.232746
   44.5325  0.237800
   45.0529  0.242777
   45.5794  0.248338
   46.1120  0.253936
   46.6509  0.258829
   47.1961  0.263722
   47.7476  0.268556
   48.3056  0.272528
   48.8701  0.274660
   49.4412  0.280097
   50.0190  0.283327
   50.6035  0.284482
   51.1948  0.285642
   51.7931  0.286806
   52.3983  0.288893
   53.0107  0.292152
   53.6302  0.296471
   54.2569  0.302078
   54.8909  0.305811
   55.5324  0.311444
   56.1814  0.317522
   56.8379  0.325277
   57.5021  0.332062
   58.1741  0.338276
   58.8539  0.345577
   59.5417  0.351917
   60.2375  0.357056
   60.9414  0.362227
   61.6536  0.367445
   62.3741  0.370749
   63.1030  0.375935
   63.8404  0.379160
   64.5864  0.383600
   65.3412  0.386854
   66.1048  0.392094
   66.8773  0.395947
   67.6588  0.400582
   68.4495  0.405661
   69.2494  0.411092
   70.0586  0.419128
   70.8773  0.424809
   71.7056  0.429709
   72.5436  0.434666
   73.3913  0.439897
   74.2490  0.444631
   75.1166  0.449152
   75.9944  0.452846
   76.8825  0.456122
   77.7810  0.459291
   78.6899  0.462193
   79.6095  0.465353
   80.5398  0.467945
   81.4810  0.470686
   82.4332  0.474141
   83.3965  0.477841
   84.3711  0.482855
   85.3571  0.488159
   86.3545  0.493527
   87.3637  0.499635
   88.3846  0.505958
   89.4175  0.512447
   90.4624  0.519075
   91.5196  0.525809
   92.5891  0.532634
   93.6711  0.539452
   94.7657  0.545894
   95.8732  0.552384
   96.9935  0.558945
   98.1270  0.564060
   99.2737  0.571430
   100.434  0.578548
   101.608  0.585679
   102.795  0.592197
   103.996  0.598010
   105.211  0.607409
   106.441  0.614063
   107.685  0.612083
   108.943  0.598560
   110.216  0.560147
   111.504  0.470317
   112.807  4.407831E-02
   114.126  2.926798E-02
   115.459  3.221346E-02
   116.809  2.950901E-02
   118.174  2.166740E-02
   119.555  2.200118E-02
   120.952  2.126078E-02
   122.365  1.951861E-02
   123.795  1.913259E-02
   125.242  1.694148E-02
   126.705  1.693636E-02
   128.186  2.137583E-02
   129.684  2.791849E-02
   131.200  3.562842E-02
   132.733  3.932077E-02
   134.284  3.993345E-02
   135.853  4.039683E-02
   137.441  4.144420E-02
   139.047  4.270992E-02
   140.672  4.298043E-02
   142.316  4.278162E-02
   143.979  4.320540E-02
   145.661  4.392823E-02
   147.364  4.420979E-02
   149.086  4.413448E-02
   150.828  4.426132E-02
   152.590  4.448857E-02
   154.374  4.439256E-02
   156.178  4.385857E-02
   158.003  4.337147E-02
   159.849  4.375472E-02
   161.717  4.482063E-02
   163.607  4.738168E-02
   165.519  5.079505E-02
   167.453  5.425641E-02
   169.410  5.753825E-02
   171.390  5.948921E-02
   173.393  6.172744E-02
   175.419  6.381299E-02
   177.469  6.685024E-02
   179.543  7.002115E-02
   181.641  7.145744E-02
   183.764  7.317283E-02
   185.911  7.463181E-02
   188.084  7.630128E-02
   190.282  7.700693E-02
   192.505  7.844319E-02
   194.755  8.055547E-02
   197.031  8.211721E-02
   199.333  8.343764E-02
   201.663  8.508363E-02
   204.019  8.624884E-02
   206.403  8.809269E-02
   208.816  9.054647E-02
   211.256  9.289414E-02
   213.724  9.572371E-02
   216.222  9.813766E-02
   218.749  0.101035
   221.305  0.103402
   223.891  0.106548
   226.508  0.109021
   229.155  0.113625
   231.833  0.118400
   234.542  0.123220
   237.283  0.126946
   240.056  0.130390
   242.861  0.134182
   245.699  0.138084
   248.570  0.139999
   251.475  0.142746
   254.414  0.147197
   257.387  0.151812
   260.395  0.156571
   263.438  0.161480
   266.516  0.166543
   269.631  0.171765
   272.782  0.177151
   275.969  0.182705
   279.194  0.188434
   282.457  0.194342
   285.758  0.200435
   289.097  0.206718
   292.476  0.213200
   295.894  0.219885
   299.351  0.226779
   302.850  0.233890
   306.389  0.241223
   309.969  0.248785
   313.592  0.256586
   317.256  0.264534
   320.964  0.272673
   324.714  0.281065
   328.509  0.289711
   332.348  0.298625
   336.232  0.307814
   340.161  0.317285
   344.136  0.327048
   348.158  0.337111
   352.226  0.347483
   356.342  0.358175
   360.507  0.369196
   364.720  0.380557
   368.982  0.392265
   373.294  0.404336
   377.656  0.416778
   382.069  0.429602
   386.534  0.442821
   391.051  0.456862
   395.621  0.471542
   400.244  0.486694
   404.922  0.502789
   409.654  0.519454
   414.441  0.536670
   419.284  0.554457
   424.184  0.572835
   429.141  0.591821
   434.156  0.611435
   439.229  0.631701
   444.362  0.652637
   449.555  0.674269
   454.808  0.696616
   460.123  0.719704
   465.500  0.743559
   470.940  0.768203
   476.444  0.793665
   482.011  0.819969
   487.644  0.847146
   493.343  0.875225
   499.108  0.904233
   504.941  0.934202
   510.841  0.965166
   516.811  0.997154
   522.851  1.03020
   528.961  1.06435
   535.142  1.09962
   541.396  1.13607
   547.723  1.17373
   554.123  1.21263
   560.599  1.25282
   567.150  1.29531
   573.778  1.33932
   580.483  1.38483
   587.266  1.43188
   594.129  1.48053
   601.072  1.53083
   608.096  1.58285
   615.203  1.63662
   622.392  1.69223
   629.665  1.74973
   637.024  1.80918
   644.468  1.87390
   651.999  1.94140
   659.618  2.01133
   667.327  2.08377
   675.125  2.15580
   683.015  2.22770
   690.996  2.29917
   699.071  2.37296
   707.241  2.45218
   715.506  2.53624
   723.867  2.62318
   732.326  2.71448
   740.884  2.80926
   749.542  2.90735
   758.301  3.00886
   767.163  3.11392
   776.128  3.22264
   785.198  3.33516
   794.374  3.45161
   803.657  3.57212
   813.048  3.69683
   822.550  3.82591
   832.162  3.95951
   841.887  4.09776
   851.725  4.24083
   861.678  4.38889
   871.748  4.54213
   881.935  4.70047
   892.242  4.86364
   902.668  5.03244
   913.217  5.20713
   923.889  5.38789
   934.686  5.57488
   945.608  5.77050
   956.659  5.97375
   967.838  6.18417
   979.148  6.40196
   990.591  6.62746
   1002.17  6.86091
   1013.88  7.10253
   1025.73  7.35269
   1037.71  7.61166
   1049.84  7.87976
   1062.11  8.15738
   1074.52  8.44471
   1087.08  8.74213
   1099.78  9.05003
   1112.63  9.36871
   1125.64  9.69867
   1138.79  10.0403
   1152.10  10.3940
   1165.56  10.7601
   1179.18  11.1390
   1192.96  11.5313
   1206.90  11.9374
   1221.01  12.3579
   1235.28  12.7931
   1249.71  13.2437
   1264.31  13.7101
   1279.09  14.1930
   1294.04  14.6928
   1309.16  15.2103
   1324.46  15.7460
   1339.94  16.3006
   1355.59  16.8747
   1371.44  17.4694
   1387.46  18.0852
   1403.68  18.7228
   1420.08  19.3828
   1436.68  20.0659
   1453.46  20.7732
   1470.45  21.5056
   1487.63  22.2635
   1505.02  23.0482
   1522.61  23.8661
   1540.40  24.7257
   1558.40  25.6160
   1576.61  26.5384
   1595.04  27.4940
   1613.68  28.4840
   1632.53  29.5095
   1651.61  30.5720
   1670.91  31.6728
   1690.44  32.8134
   1710.19  33.9949
   1730.18  35.2187
   1750.40  36.4867
   1770.85  37.8003
   1791.55  39.1612
   1812.48  40.5710
   1833.66  42.0313
   1855.09  43.5443
   1876.77  45.1117
   1898.70  46.7355
   1920.89  48.4176
   1943.34  50.1602
   1966.05  51.9653
   1989.02  53.8356
   2012.27  55.7732
   2035.78  57.7991
   2059.57  59.9223
   2083.64  62.1237
   2107.99  64.4055
   2132.62  66.7711
   2157.55  69.2237
   2182.76  71.7659
   2208.27  74.4014
   2234.07  77.1336
   2260.18  79.9656
   2286.59  82.9022
   2313.31  85.9461
   2340.35  89.1008
   2367.70  92.3719
   2395.37  95.7626
   2423.36  99.2772
   2451.68  102.921
   2480.33  106.698
   2509.31  110.613
   2538.64  114.671
   2568.30  118.877
   2598.32  123.238
   2628.68  127.758
   2659.40  132.443
   2690.48  137.300
   2721.92  142.334
   2753.73  147.552
   2785.91  152.960
   2818.46  158.566
   2851.40  164.376
   2884.72  170.398
   2918.43  176.639
   2952.54  183.107
   2987.04  189.812
   3021.95  196.762
   3057.26  204.094
   3092.99  211.707
   3129.14  219.603
   3165.70  227.793
   3202.70  236.285
   3240.12  245.091
   3277.99  254.224
   3316.29  263.694
   3355.05  273.515
   3394.26  283.700
   3433.92  294.261
   3474.05  305.211
   3514.65  316.567
   3555.72  328.340
   3597.27  340.547
   3639.31  353.203
   3681.84  366.325
   3724.87  379.929
   3768.40  394.033
   3812.43  408.655
   3856.99  423.811
   3902.06  439.522
   3947.66  455.809
   3993.79  472.690
   4040.46  490.193
   4087.68  508.335
   4135.45  527.291
   4183.77  547.016
   4232.67  567.465
   4282.13  588.666
   4332.17  610.645
   4382.80  633.430
   4434.01  657.048
   4485.83  681.530
   4538.25  706.904
   4591.29  733.202
   4644.94  760.459
   4699.22  788.701
   4754.14  817.966
   4809.69  848.288
   4865.90  879.705
   4922.76  912.255
   4980.29  945.974
   5038.49  980.903
   5097.37  1017.09
   5156.94  1054.56
   5217.20  1093.36
   5278.17  1133.89
   5339.85  1175.89
   5402.25  1219.37
   5465.38  1264.41
   5529.25  1311.03
   5593.87  1359.30
   5659.24  1409.26
   5725.37  1460.97
   5792.28  1514.48
   5859.97  1569.84
   5928.45  1627.13
   5997.73  1686.38
   6067.82  1747.68
   6138.73  1811.07
   6210.46  1876.60
   6283.04  1944.36
   6356.46  2014.59
   6430.75  2087.47
   6505.90  2162.80
   6581.92  2240.62
   6658.84  2321.01
   6736.66  2404.03
   6815.38  2489.76
   6895.02  2578.26
   6975.60  2669.59
   7057.12  2763.81
   7139.59  2861.02
   7223.02  2961.26
   7307.43  3064.59
   7392.82  3171.08
   7479.22  3280.81
   7566.62  3393.81
   7655.04  3510.17
   7744.50  3629.96
   7835.00  3753.20
   7926.56  3879.96
   8019.19  4010.32
   8112.91  4144.50
   8207.71  4282.39
   8303.63  4424.00
   8400.67  4570.46
   8498.84  4720.91
   8598.15  4875.27
   8698.63  5033.56
   8800.29  5195.83
   8903.13  5362.09
   9007.17  5532.35
   9112.43  5706.59
   9218.91  5884.82
   9326.65  6067.06
   9435.64  6253.25
   9545.90  6443.39
   9657.46  6637.42
   9770.32  6835.33
   9884.49  7037.05
   10000.0  7242.53
