 Be Density=2.448, Angle=90.deg
 Photon Energy (eV), Atten Length (microns)
   30.0000  8.843154E-02
   30.3927  9.261227E-02
   30.7905  9.699020E-02
   31.1935  0.101575
   31.6019  0.106377
   32.0155  0.111406
   32.4346  0.116673
   32.8591  0.122189
   33.2892  0.127966
   33.7250  0.134015
   34.1664  0.139561
   34.6136  0.144545
   35.0667  0.149189
   35.5257  0.153982
   35.9907  0.158930
   36.4618  0.164037
   36.9391  0.169307
   37.4226  0.174747
   37.9125  0.180362
   38.4087  0.186157
   38.9115  0.192079
   39.4208  0.194945
   39.9368  0.198824
   40.4596  0.202699
   40.9891  0.206528
   41.5257  0.211687
   42.0692  0.216165
   42.6199  0.221143
   43.1778  0.225876
   43.7429  0.230819
   44.3155  0.235444
   44.8956  0.240944
   45.4832  0.247289
   46.0786  0.253633
   46.6817  0.259110
   47.2928  0.264591
   47.9118  0.269766
   48.5390  0.273410
   49.1743  0.277085
   49.8180  0.282582
   50.4701  0.284219
   51.1307  0.285517
   51.8000  0.286819
   52.4780  0.289314
   53.1649  0.292973
   53.8608  0.298735
   54.5658  0.304128
   55.2801  0.309339
   56.0037  0.315440
   56.7367  0.324075
   57.4794  0.331901
   58.2318  0.338991
   58.9940  0.346969
   59.7662  0.353574
   60.5485  0.359318
   61.3411  0.365755
   62.1440  0.369695
   62.9574  0.374884
   63.7815  0.379016
   64.6164  0.383729
   65.4622  0.387596
   66.3190  0.393163
   67.1871  0.397726
   68.0666  0.403064
   68.9575  0.409110
   69.8601  0.417008
   70.7746  0.424202
   71.7010  0.429681
   72.6395  0.435486
   73.5903  0.440732
   74.5536  0.446434
   75.5294  0.451218
   76.5181  0.454571
   77.5197  0.458071
   78.5344  0.461430
   79.5623  0.465221
   80.6038  0.468123
   81.6588  0.471156
   82.7277  0.475273
   83.8106  0.479814
   84.9076  0.485765
   86.0190  0.491683
   87.1450  0.498311
   88.2857  0.505339
   89.4413  0.512598
   90.6120  0.520027
   91.7981  0.527585
   92.9997  0.535257
   94.2170  0.542665
   95.4502  0.549908
   96.6996  0.557223
   97.9654  0.563554
   99.2477  0.571230
   100.547  0.578856
   101.863  0.587438
   103.196  0.594336
   104.547  0.602171
   105.916  0.611677
   107.302  0.613158
   108.706  0.601272
   110.129  0.564547
   111.571  0.448825
   113.031  3.123443E-02
   114.511  3.222040E-02
   116.010  3.089050E-02
   117.528  2.525756E-02
   119.067  2.207146E-02
   120.625  2.109744E-02
   122.204  1.945753E-02
   123.804  1.911462E-02
   125.424  1.663950E-02
   127.066  1.751114E-02
   128.729  2.347808E-02
   130.414  3.139273E-02
   132.121  3.833327E-02
   133.851  3.987842E-02
   135.603  4.036482E-02
   137.378  4.138884E-02
   139.176  4.277575E-02
   140.998  4.287599E-02
   142.843  4.285399E-02
   144.713  4.350377E-02
   146.607  4.425958E-02
   148.526  4.407110E-02
   150.470  4.412635E-02
   152.440  4.451536E-02
   154.435  4.438390E-02
   156.457  4.377829E-02
   158.505  4.348605E-02
   160.579  4.404330E-02
   162.681  4.588821E-02
   164.811  4.952953E-02
   166.968  5.340370E-02
   169.154  5.713733E-02
   171.368  5.947412E-02
   173.611  6.202354E-02
   175.883  6.449387E-02
   178.185  6.837782E-02
   180.518  7.090452E-02
   182.881  7.258649E-02
   185.275  7.421543E-02
   187.700  7.592203E-02
   190.157  7.691915E-02
   192.646  7.852442E-02
   195.167  8.074888E-02
   197.722  8.265980E-02
   200.310  8.424222E-02
   202.932  8.570269E-02
   205.588  8.740486E-02
   208.279  8.998704E-02
   211.006  9.260026E-02
   213.768  9.576799E-02
   216.566  9.850366E-02
   219.400  0.101771
   222.272  0.104536
   225.182  0.107360
   228.129  0.111567
   231.115  0.116513
   234.140  0.122494
   237.205  0.126790
   240.310  0.130912
   243.456  0.134826
   246.642  0.138704
   249.871  0.140590
   253.141  0.145249
   256.455  0.150356
   259.812  0.155641
   263.213  0.161114
   266.658  0.166779
   270.148  0.172643
   273.685  0.178713
   277.267  0.184997
   280.896  0.191501
   284.573  0.198234
   288.298  0.205203
   292.072  0.212418
   295.895  0.219887
   299.768  0.227618
   303.692  0.235622
   307.667  0.243905
   311.694  0.252480
   315.774  0.261322
   319.907  0.270338
   324.095  0.279667
   328.337  0.289316
   332.635  0.299298
   336.989  0.309624
   341.400  0.320307
   345.868  0.331360
   350.396  0.342793
   354.982  0.354619
   359.629  0.366855
   364.336  0.379514
   369.105  0.392607
   373.936  0.406155
   378.831  0.420169
   383.790  0.434666
   388.813  0.449781
   393.903  0.465988
   399.059  0.482779
   404.282  0.500565
   409.574  0.519171
   414.935  0.538469
   420.367  0.558484
   425.869  0.579246
   431.443  0.600776
   437.091  0.623107
   442.812  0.646269
   448.608  0.670292
   454.480  0.695207
   460.429  0.721048
   466.456  0.747851
   472.562  0.775649
   478.747  0.804482
   485.014  0.834383
   491.363  0.865400
   497.794  0.897568
   504.310  0.930932
   510.911  0.965536
   517.599  1.00143
   524.374  1.03865
   531.238  1.07726
   538.191  1.11730
   545.236  1.15883
   552.373  1.20191
   559.603  1.24658
   566.928  1.29385
   574.349  1.34316
   581.867  1.39434
   589.483  1.44747
   597.199  1.50263
   605.016  1.55990
   612.936  1.61934
   620.959  1.68105
   629.087  1.74511
   637.321  1.81161
   645.663  1.88451
   654.115  1.96065
   662.677  2.03986
   671.351  2.12125
   680.139  2.20226
   689.041  2.28153
   698.061  2.36364
   707.198  2.45175
   716.455  2.54601
   725.833  2.64401
   735.334  2.74754
   744.959  2.85514
   754.710  2.96696
   764.589  3.08315
   774.597  3.20389
   784.736  3.32936
   795.008  3.45976
   805.414  3.59524
   815.956  3.73603
   826.637  3.88234
   837.457  4.03440
   848.419  4.19239
   859.524  4.35656
   870.775  4.52717
   882.173  4.70419
   893.720  4.88735
   905.419  5.07760
   917.270  5.27530
   929.277  5.48068
   941.441  5.69504
   953.764  5.92005
   966.248  6.15394
   978.896  6.39704
   991.709  6.64977
   1004.69  6.91249
   1017.84  7.18555
   1031.16  7.46942
   1044.66  7.76451
   1058.34  8.07131
   1072.19  8.39023
   1086.22  8.72168
   1100.44  9.06623
   1114.85  9.42431
   1129.44  9.79662
   1144.22  10.1837
   1159.20  10.5860
   1174.37  11.0043
   1189.74  11.4389
   1205.32  11.8908
   1221.09  12.3605
   1237.08  12.8488
   1253.27  13.3564
   1269.68  13.8841
   1286.29  14.4325
   1303.13  15.0026
   1320.19  15.5953
   1337.47  16.2114
   1354.98  16.8518
   1372.71  17.5179
   1390.68  18.2106
   1408.88  18.9307
   1427.33  19.6791
   1446.01  20.4571
   1464.94  21.2660
   1484.11  22.1068
   1503.54  22.9807
   1523.22  23.8953
   1543.16  24.8607
   1563.36  25.8648
   1583.82  26.9095
   1604.55  27.9964
   1625.55  29.1271
   1646.83  30.3034
   1668.39  31.5273
   1690.23  32.8009
   1712.35  34.1256
   1734.76  35.5037
   1757.47  36.9375
   1780.48  38.4292
   1803.78  39.9810
   1827.39  41.5953
   1851.31  43.2748
   1875.54  45.0221
   1900.09  46.8399
   1924.97  48.7309
   1950.16  50.6981
   1975.69  52.7448
   2001.55  54.8741
   2027.75  57.0939
   2054.29  59.4464
   2081.18  61.8963
   2108.42  64.4465
   2136.02  67.1018
   2163.98  69.8665
   2192.31  72.7446
   2221.00  75.7413
   2250.07  78.8610
   2279.53  82.1094
   2309.36  85.4915
   2339.59  89.0116
   2370.22  92.6773
   2401.24  96.4932
   2432.67  100.466
   2464.51  104.601
   2496.77  108.907
   2529.46  113.390
   2562.56  118.056
   2596.11  122.913
   2630.09  127.970
   2664.52  133.235
   2699.39  138.714
   2734.73  144.420
   2770.52  150.358
   2806.79  156.540
   2843.53  162.974
   2880.75  169.672
   2918.46  176.643
   2956.66  183.899
   2995.36  191.452
   3034.57  199.354
   3074.29  207.698
   3114.53  216.388
   3155.29  225.441
   3196.60  234.870
   3238.44  244.690
   3280.83  254.918
   3323.77  265.570
   3367.28  276.665
   3411.35  288.220
   3456.01  300.254
   3501.24  312.786
   3547.07  325.838
   3593.50  339.428
   3640.54  353.578
   3688.19  368.313
   3736.47  383.656
   3785.38  399.630
   3834.93  416.262
   3885.13  433.575
   3935.98  451.599
   3987.50  470.363
   4039.69  489.901
   4092.57  510.240
   4146.14  531.614
   4200.41  553.918
   4255.39  577.143
   4311.09  601.323
   4367.52  626.497
   4424.69  652.708
   4482.61  679.992
   4541.29  708.391
   4600.73  737.953
   4660.95  768.719
   4721.96  800.734
   4783.77  834.047
   4846.39  868.714
   4909.82  904.780
   4974.09  942.300
   5039.20  981.335
   5105.16  1021.94
   5171.98  1064.16
   5239.68  1108.19
   5308.27  1154.26
   5377.75  1202.18
   5448.14  1252.01
   5519.45  1303.81
   5591.70  1357.66
   5664.89  1413.63
   5739.04  1471.81
   5814.17  1532.24
   5890.27  1595.03
   5967.37  1660.25
   6045.48  1727.99
   6124.61  1798.34
   6204.78  1871.36
   6286.00  1947.15
   6368.28  2026.07
   6451.64  2108.25
   6536.09  2193.50
   6621.64  2281.92
   6708.31  2373.60
   6796.12  2468.63
   6885.08  2567.11
   6975.20  2669.13
   7066.50  2774.78
   7159.00  2884.18
   7252.71  2997.38
   7347.64  3114.49
   7443.82  3235.61
   7541.26  3360.82
   7639.97  3490.19
   7739.97  3623.84
   7841.28  3761.84
   7943.92  3904.22
   8047.90  4051.19
   8153.25  4202.92
   8259.97  4359.28
   8368.09  4521.02
   8477.62  4688.21
   8588.59  4860.31
   8701.01  5037.33
   8814.90  5219.33
   8930.29  5406.33
   9047.18  5598.35
   9165.60  5795.35
   9285.58  5997.36
   9407.12  6204.36
   9530.25  6416.29
   9655.00  6633.13
   9781.38  6854.82
   9909.41  7081.27
   10039.1  7312.99
   10170.5  7550.78
   10303.7  7793.33
   10438.5  8040.51
   10575.2  8292.18
   10713.6  8548.22
   10853.8  8808.45
   10995.9  9072.75
   11139.8  9340.89
   11285.6  9612.59
   11433.4  9887.77
   11583.0  10166.1
   11734.6  10447.3
   11888.2  10731.2
   12043.8  11017.4
   12201.5  11305.7
   12361.2  11595.9
   12523.0  11889.2
   12686.9  12184.5
   12853.0  12480.6
   13021.2  12777.3
   13191.7  13073.9
   13364.3  13370.4
   13539.3  13666.3
   13716.5  13961.1
   13896.0  14254.6
   14077.9  14546.4
   14262.2  14836.1
   14448.9  15123.4
   14638.0  15407.9
   14829.6  15689.3
   15023.7  15968.8
   15220.4  16257.1
   15419.6  16542.3
   15621.5  16824.1
   15825.9  17102.4
   16033.1  17376.7
   16243.0  17647.0
   16455.6  17914.1
   16671.0  18177.3
   16889.2  18435.5
   17110.2  18688.6
   17334.2  18936.5
   17561.1  19179.0
   17791.0  19415.8
   18023.8  19646.9
   18259.8  19872.2
   18498.8  20091.4
   18740.9  20304.6
   18986.2  20511.8
   19234.8  20712.7
   19486.5  20907.4
   19741.6  21095.9
   20000.0  21278.1
