 Be Density=2.848, Angle=90.deg
 Photon Energy (eV), Atten Length (microns)
   30.0000  7.601136E-02
   30.3506  7.921398E-02
   30.7053  8.255103E-02
   31.0641  8.602893E-02
   31.4271  8.965338E-02
   31.7944  9.343065E-02
   32.1659  9.736677E-02
   32.5418  0.101469
   32.9221  0.105744
   33.3068  0.110199
   33.6960  0.114842
   34.0898  0.119170
   34.4882  0.123152
   34.8912  0.126681
   35.2990  0.130311
   35.7115  0.134045
   36.1288  0.137886
   36.5510  0.141838
   36.9781  0.145902
   37.4103  0.150083
   37.8474  0.154384
   38.2897  0.158808
   38.7372  0.163359
   39.1899  0.166754
   39.6478  0.168872
   40.1112  0.172165
   40.5799  0.174868
   41.0541  0.177888
   41.5339  0.182032
   42.0192  0.185458
   42.5103  0.189436
   43.0071  0.192584
   43.5096  0.196711
   44.0181  0.200057
   44.5325  0.204401
   45.0529  0.208679
   45.5794  0.213459
   46.1120  0.218271
   46.6509  0.222477
   47.1961  0.226682
   47.7476  0.230837
   48.3056  0.234251
   48.8701  0.236084
   49.4412  0.240757
   50.0190  0.243534
   50.6035  0.244527
   51.1948  0.245524
   51.7931  0.246524
   52.3983  0.248318
   53.0107  0.251119
   53.6302  0.254832
   54.2569  0.259651
   54.8909  0.262860
   55.5324  0.267702
   56.1814  0.272926
   56.8379  0.279592
   57.5021  0.285424
   58.1741  0.290765
   58.8539  0.297041
   59.5417  0.302490
   60.2375  0.306908
   60.9414  0.311352
   61.6536  0.315838
   62.3741  0.318678
   63.1030  0.323135
   63.8404  0.325908
   64.5864  0.329723
   65.3412  0.332520
   66.1048  0.337024
   66.8773  0.340336
   67.6588  0.344321
   68.4495  0.348686
   69.2494  0.353355
   70.0586  0.360261
   70.8773  0.365145
   71.7056  0.369356
   72.5436  0.373617
   73.3913  0.378114
   74.2490  0.382183
   75.1166  0.386069
   75.9944  0.389244
   76.8825  0.392060
   77.7810  0.394784
   78.6899  0.397278
   79.6095  0.399994
   80.5398  0.402223
   81.4810  0.404579
   82.4332  0.407548
   83.3965  0.410728
   84.3711  0.415039
   85.3571  0.419597
   86.3545  0.424211
   87.3637  0.429461
   88.3846  0.434896
   89.4175  0.440474
   90.4624  0.446172
   91.5196  0.451960
   92.5891  0.457826
   93.6711  0.463686
   94.7657  0.469224
   95.8732  0.474802
   96.9935  0.480441
   98.1270  0.484838
   99.2737  0.491173
   100.434  0.497291
   101.608  0.503421
   102.795  0.509024
   103.996  0.514020
   105.211  0.522099
   106.441  0.527818
   107.685  0.526116
   108.943  0.514493
   110.216  0.481474
   111.504  0.404262
   112.807  3.788753E-02
   114.126  2.515731E-02
   115.459  2.768909E-02
   116.809  2.536448E-02
   118.174  1.862422E-02
   119.555  1.891112E-02
   120.952  1.827472E-02
   122.365  1.677723E-02
   123.795  1.644543E-02
   125.242  1.456206E-02
   126.705  1.455766E-02
   128.186  1.837361E-02
   129.684  2.399735E-02
   131.200  3.062443E-02
   132.733  3.379820E-02
   134.284  3.432482E-02
   135.853  3.472311E-02
   137.441  3.562339E-02
   139.047  3.671134E-02
   140.672  3.694385E-02
   142.316  3.677297E-02
   143.979  3.713722E-02
   145.661  3.775853E-02
   147.364  3.800055E-02
   149.086  3.793582E-02
   150.828  3.804484E-02
   152.590  3.824017E-02
   154.374  3.815765E-02
   156.178  3.769866E-02
   158.003  3.727996E-02
   159.849  3.760940E-02
   161.717  3.852560E-02
   163.607  4.072695E-02
   165.519  4.366092E-02
   167.453  4.663613E-02
   169.410  4.945703E-02
   171.390  5.113398E-02
   173.393  5.305785E-02
   175.419  5.485050E-02
   177.469  5.746116E-02
   179.543  6.018672E-02
   181.641  6.142128E-02
   183.764  6.289575E-02
   185.911  6.414982E-02
   188.084  6.558481E-02
   190.282  6.619135E-02
   192.505  6.742589E-02
   194.755  6.924151E-02
   197.031  7.058390E-02
   199.333  7.171886E-02
   201.663  7.313367E-02
   204.019  7.413524E-02
   206.403  7.572012E-02
   208.816  7.782926E-02
   211.256  7.984721E-02
   213.724  8.227937E-02
   216.222  8.435428E-02
   218.749  8.684501E-02
   221.305  8.887884E-02
   223.891  9.158373E-02
   226.508  9.370916E-02
   229.155  9.766628E-02
   231.833  0.101771
   234.542  0.105914
   237.283  0.109116
   240.056  0.112077
   242.861  0.115336
   245.699  0.118690
   248.570  0.120337
   251.475  0.122698
   254.414  0.126524
   257.387  0.130490
   260.395  0.134581
   263.438  0.138800
   266.516  0.143152
   269.631  0.147641
   272.782  0.152270
   275.969  0.157045
   279.194  0.161968
   282.457  0.167046
   285.758  0.172284
   289.097  0.177685
   292.476  0.183256
   295.894  0.189002
   299.351  0.194928
   302.850  0.201040
   306.389  0.207343
   309.969  0.213843
   313.592  0.220548
   317.256  0.227380
   320.964  0.234377
   324.714  0.241589
   328.509  0.249022
   332.348  0.256683
   336.232  0.264582
   340.161  0.272722
   344.136  0.281114
   348.158  0.289764
   352.226  0.298680
   356.342  0.307869
   360.507  0.317343
   364.720  0.327108
   368.982  0.337172
   373.294  0.347547
   377.656  0.358241
   382.069  0.369264
   386.534  0.380627
   391.051  0.392696
   395.621  0.405314
   400.244  0.418338
   404.922  0.432173
   409.654  0.446497
   414.441  0.461295
   419.284  0.476584
   424.184  0.492380
   429.141  0.508700
   434.156  0.525560
   439.229  0.542979
   444.362  0.560975
   449.555  0.579568
   454.808  0.598777
   460.123  0.618622
   465.500  0.639126
   470.940  0.660309
   476.444  0.682195
   482.011  0.704805
   487.644  0.728164
   493.343  0.752300
   499.108  0.777234
   504.941  0.802994
   510.841  0.829609
   516.811  0.857104
   522.851  0.885513
   528.961  0.914861
   535.142  0.945182
   541.396  0.976511
   547.723  1.00888
   554.123  1.04231
   560.599  1.07686
   567.150  1.11338
   573.778  1.15121
   580.483  1.19033
   587.266  1.23077
   594.129  1.27259
   601.072  1.31583
   608.096  1.36054
   615.203  1.40676
   622.392  1.45456
   629.665  1.50398
   637.024  1.55508
   644.468  1.61071
   651.999  1.66873
   659.618  1.72884
   667.327  1.79111
   675.125  1.85302
   683.015  1.91482
   690.996  1.97626
   699.071  2.03967
   707.241  2.10778
   715.506  2.18002
   723.867  2.25476
   732.326  2.33324
   740.884  2.41470
   749.542  2.49901
   758.301  2.58627
   767.163  2.67657
   776.128  2.77003
   785.198  2.86674
   794.374  2.96684
   803.657  3.07042
   813.048  3.17762
   822.550  3.28856
   832.162  3.40340
   841.887  3.52224
   851.725  3.64521
   861.678  3.77247
   871.748  3.90419
   881.935  4.04029
   892.242  4.18054
   902.668  4.32564
   913.217  4.47579
   923.889  4.63116
   934.686  4.79189
   945.608  4.96003
   956.659  5.13474
   967.838  5.31561
   979.148  5.50281
   990.591  5.69664
   1002.17  5.89730
   1013.88  6.10498
   1025.73  6.32001
   1037.71  6.54261
   1049.84  6.77305
   1062.11  7.01168
   1074.52  7.25866
   1087.08  7.51430
   1099.78  7.77896
   1112.63  8.05288
   1125.64  8.33649
   1138.79  8.63015
   1152.10  8.93415
   1165.56  9.24884
   1179.18  9.57458
   1192.96  9.91170
   1206.90  10.2608
   1221.01  10.6222
   1235.28  10.9963
   1249.71  11.3836
   1264.31  11.7846
   1279.09  12.1996
   1294.04  12.6292
   1309.16  13.0740
   1324.46  13.5345
   1339.94  14.0112
   1355.59  14.5046
   1371.44  15.0158
   1387.46  15.5452
   1403.68  16.0932
   1420.08  16.6605
   1436.68  17.2477
   1453.46  17.8556
   1470.45  18.4851
   1487.63  19.1366
   1505.02  19.8111
   1522.61  20.5141
   1540.40  21.2530
   1558.40  22.0182
   1576.61  22.8111
   1595.04  23.6325
   1613.68  24.4834
   1632.53  25.3649
   1651.61  26.2782
   1670.91  27.2243
   1690.44  28.2048
   1710.19  29.2203
   1730.18  30.2723
   1750.40  31.3621
   1770.85  32.4913
   1791.55  33.6610
   1812.48  34.8728
   1833.66  36.1281
   1855.09  37.4285
   1876.77  38.7758
   1898.70  40.1715
   1920.89  41.6174
   1943.34  43.1152
   1966.05  44.6668
   1989.02  46.2744
   2012.27  47.9399
   2035.78  49.6813
   2059.57  51.5062
   2083.64  53.3985
   2107.99  55.3598
   2132.62  57.3931
   2157.55  59.5012
   2182.76  61.6864
   2208.27  63.9518
   2234.07  66.3002
   2260.18  68.7345
   2286.59  71.2587
   2313.31  73.8750
   2340.35  76.5866
   2367.70  79.3983
   2395.37  82.3128
   2423.36  85.3338
   2451.68  88.4654
   2480.33  91.7119
   2509.31  95.0772
   2538.64  98.5655
   2568.30  102.181
   2598.32  105.929
   2628.68  109.814
   2659.40  113.842
   2690.48  118.016
   2721.92  122.343
   2753.73  126.828
   2785.91  131.477
   2818.46  136.295
   2851.40  141.289
   2884.72  146.466
   2918.43  151.830
   2952.54  157.390
   2987.04  163.153
   3021.95  169.127
   3057.26  175.429
   3092.99  181.973
   3129.14  188.760
   3165.70  195.799
   3202.70  203.099
   3240.12  210.668
   3277.99  218.518
   3316.29  226.658
   3355.05  235.100
   3394.26  243.854
   3433.92  252.932
   3474.05  262.345
   3514.65  272.105
   3555.72  282.225
   3597.27  292.717
   3639.31  303.596
   3681.84  314.875
   3724.87  326.568
   3768.40  338.692
   3812.43  351.259
   3856.99  364.287
   3902.06  377.791
   3947.66  391.790
   3993.79  406.301
   4040.46  421.345
   4087.68  436.940
   4135.45  453.233
   4183.77  470.188
   4232.67  487.764
   4282.13  505.988
   4332.17  524.881
   4382.80  544.465
   4434.01  564.766
   4485.83  585.810
   4538.25  607.620
   4591.29  630.224
   4644.94  653.653
   4699.22  677.928
   4754.14  703.083
   4809.69  729.147
   4865.90  756.151
   4922.76  784.130
   4980.29  813.112
   5038.49  843.136
   5097.37  874.237
   5156.94  906.446
   5217.20  939.798
   5278.17  974.640
   5339.85  1010.74
   5402.25  1048.11
   5465.38  1086.83
   5529.25  1126.90
   5593.87  1168.39
   5659.24  1211.33
   5725.37  1255.78
   5792.28  1301.77
   5859.97  1349.36
   5928.45  1398.60
   5997.73  1449.53
   6067.82  1502.22
   6138.73  1556.70
   6210.46  1613.04
   6283.04  1671.27
   6356.46  1731.64
   6430.75  1794.29
   6505.90  1859.03
   6581.92  1925.92
   6658.84  1995.03
   6736.66  2066.39
   6815.38  2140.07
   6895.02  2216.14
   6975.60  2294.64
   7057.12  2375.64
   7139.59  2459.19
   7223.02  2545.35
   7307.43  2634.17
   7392.82  2725.71
   7479.22  2820.02
   7566.62  2917.15
   7655.04  3017.17
   7744.50  3120.13
   7835.00  3226.07
   7926.56  3335.02
   8019.19  3447.07
   8112.91  3562.41
   8207.71  3680.93
   8303.63  3802.65
   8400.67  3928.54
   8498.84  4057.86
   8598.15  4190.54
   8698.63  4326.60
   8800.29  4466.08
   8903.13  4608.99
   9007.17  4755.33
   9112.43  4905.10
   9218.91  5058.30
   9326.65  5214.94
   9435.64  5374.99
   9545.90  5538.42
   9657.46  5705.20
   9770.32  5875.31
   9884.49  6048.70
   10000.0  6225.32
