 Be Density=2.648, Angle=90.deg
 Photon Energy (eV), Atten Length (microns)
   30.0000  8.175241E-02
   30.3927  8.561739E-02
   30.7905  8.966465E-02
   31.1935  9.390349E-02
   31.6019  9.834284E-02
   32.0155  0.102992
   32.4346  0.107861
   32.8591  0.112960
   33.2892  0.118300
   33.7250  0.123893
   34.1664  0.129020
   34.6136  0.133628
   35.0667  0.137921
   35.5257  0.142352
   35.9907  0.146926
   36.4618  0.151647
   36.9391  0.156520
   37.4226  0.161548
   37.9125  0.166740
   38.4087  0.172097
   38.9115  0.177572
   39.4208  0.180221
   39.9368  0.183807
   40.4596  0.187389
   40.9891  0.190929
   41.5257  0.195699
   42.0692  0.199838
   42.6199  0.204440
   43.1778  0.208816
   43.7429  0.213386
   44.3155  0.217662
   44.8956  0.222746
   45.4832  0.228611
   46.0786  0.234477
   46.6817  0.239540
   47.2928  0.244607
   47.9118  0.249391
   48.5390  0.252760
   49.1743  0.256157
   49.8180  0.261239
   50.4701  0.262752
   51.1307  0.263952
   51.8000  0.265156
   52.4780  0.267462
   53.1649  0.270846
   53.8608  0.276172
   54.5658  0.281158
   55.2801  0.285975
   56.0037  0.291615
   56.7367  0.299598
   57.4794  0.306833
   58.2318  0.313388
   58.9940  0.320763
   59.7662  0.326869
   60.5485  0.332179
   61.3411  0.338130
   62.1440  0.341773
   62.9574  0.346570
   63.7815  0.350390
   64.6164  0.354746
   65.4622  0.358321
   66.3190  0.363468
   67.1871  0.367687
   68.0666  0.372621
   68.9575  0.378210
   69.8601  0.385512
   70.7746  0.392162
   71.7010  0.397228
   72.6395  0.402595
   73.5903  0.407444
   74.5536  0.412716
   75.5294  0.417138
   76.5181  0.420238
   77.5197  0.423473
   78.5344  0.426579
   79.5623  0.430084
   80.6038  0.432766
   81.6588  0.435570
   82.7277  0.439376
   83.8106  0.443574
   84.9076  0.449076
   86.0190  0.454547
   87.1450  0.460674
   88.2857  0.467171
   89.4413  0.473882
   90.6120  0.480750
   91.7981  0.487737
   92.9997  0.494830
   94.2170  0.501678
   95.4502  0.508374
   96.6996  0.515137
   97.9654  0.520990
   99.2477  0.528086
   100.547  0.535136
   101.863  0.543069
   103.196  0.549447
   104.547  0.556690
   105.916  0.565478
   107.302  0.566847
   108.706  0.555859
   110.129  0.521907
   111.571  0.414926
   113.031  2.887534E-02
   114.511  2.978683E-02
   116.010  2.855738E-02
   117.528  2.334989E-02
   119.067  2.040443E-02
   120.625  1.950398E-02
   122.204  1.798793E-02
   123.804  1.767092E-02
   125.424  1.538274E-02
   127.066  1.618855E-02
   128.729  2.170481E-02
   130.414  2.902169E-02
   132.121  3.543800E-02
   133.851  3.686646E-02
   135.603  3.731612E-02
   137.378  3.826280E-02
   139.176  3.954495E-02
   140.998  3.963762E-02
   142.843  3.961728E-02
   144.713  4.021799E-02
   146.607  4.091671E-02
   148.526  4.074246E-02
   150.470  4.079355E-02
   152.440  4.115317E-02
   154.435  4.103164E-02
   156.457  4.047177E-02
   158.505  4.020161E-02
   160.579  4.071676E-02
   162.681  4.242233E-02
   164.811  4.578863E-02
   166.968  4.937019E-02
   169.154  5.282182E-02
   171.368  5.498212E-02
   173.611  5.733898E-02
   175.883  5.962274E-02
   178.185  6.321334E-02
   180.518  6.554919E-02
   182.881  6.710412E-02
   185.275  6.861003E-02
   187.700  7.018774E-02
   190.157  7.110956E-02
   192.646  7.259357E-02
   195.167  7.465002E-02
   197.722  7.641661E-02
   200.310  7.787952E-02
   202.932  7.922969E-02
   205.588  8.080328E-02
   208.279  8.319045E-02
   211.006  8.560628E-02
   213.768  8.853476E-02
   216.566  9.106380E-02
   219.400  9.408461E-02
   222.272  9.664072E-02
   225.182  9.925169E-02
   228.129  0.103140
   231.115  0.107713
   234.140  0.113242
   237.205  0.117213
   240.310  0.121024
   243.456  0.124643
   246.642  0.128228
   249.871  0.129971
   253.141  0.134279
   256.455  0.139000
   259.812  0.143886
   263.213  0.148945
   266.658  0.154182
   270.148  0.159603
   273.685  0.165215
   277.267  0.171024
   280.896  0.177037
   284.573  0.183262
   288.298  0.189704
   292.072  0.196374
   295.895  0.203279
   299.768  0.210426
   303.692  0.217825
   307.667  0.225483
   311.694  0.233411
   315.774  0.241585
   319.907  0.249920
   324.095  0.258545
   328.337  0.267464
   332.635  0.276692
   336.989  0.286239
   341.400  0.296115
   345.868  0.306333
   350.396  0.316902
   354.982  0.327836
   359.629  0.339147
   364.336  0.350850
   369.105  0.362954
   373.936  0.375478
   378.831  0.388434
   383.790  0.401836
   388.813  0.415810
   393.903  0.430793
   399.059  0.446316
   404.282  0.462758
   409.574  0.479959
   414.935  0.497799
   420.367  0.516303
   425.869  0.535496
   431.443  0.555400
   437.091  0.576045
   442.812  0.597457
   448.608  0.619665
   454.480  0.642699
   460.429  0.666588
   466.456  0.691367
   472.562  0.717066
   478.747  0.743720
   485.014  0.771363
   491.363  0.800038
   497.794  0.829776
   504.310  0.860619
   510.911  0.892611
   517.599  0.925789
   524.374  0.960202
   531.238  0.995893
   538.191  1.03291
   545.236  1.07131
   552.373  1.11113
   559.603  1.15243
   566.928  1.19613
   574.349  1.24171
   581.867  1.28903
   589.483  1.33815
   597.199  1.38914
   605.016  1.44208
   612.936  1.49703
   620.959  1.55408
   629.087  1.61330
   637.321  1.67478
   645.663  1.74217
   654.115  1.81256
   662.677  1.88580
   671.351  1.96104
   680.139  2.03593
   689.041  2.10921
   698.061  2.18511
   707.198  2.26657
   716.455  2.35371
   725.833  2.44431
   735.334  2.54002
   744.959  2.63950
   754.710  2.74287
   764.589  2.85029
   774.597  2.96191
   784.736  3.07790
   795.008  3.19845
   805.414  3.32369
   815.956  3.45385
   826.637  3.58911
   837.457  3.72969
   848.419  3.87574
   859.524  4.02752
   870.775  4.18524
   882.173  4.34889
   893.720  4.51821
   905.419  4.69410
   917.270  4.87687
   929.277  5.06673
   941.441  5.26490
   953.764  5.47292
   966.248  5.68914
   978.896  5.91388
   991.709  6.14752
   1004.69  6.39040
   1017.84  6.64283
   1031.16  6.90527
   1044.66  7.17806
   1058.34  7.46170
   1072.19  7.75653
   1086.22  8.06294
   1100.44  8.38146
   1114.85  8.71250
   1129.44  9.05670
   1144.22  9.41453
   1159.20  9.78650
   1174.37  10.1731
   1189.74  10.5749
   1205.32  10.9927
   1221.09  11.4269
   1237.08  11.8784
   1253.27  12.3476
   1269.68  12.8354
   1286.29  13.3424
   1303.13  13.8695
   1320.19  14.4174
   1337.47  14.9869
   1354.98  15.5790
   1372.71  16.1948
   1390.68  16.8352
   1408.88  17.5009
   1427.33  18.1928
   1446.01  18.9120
   1464.94  19.6598
   1484.11  20.4371
   1503.54  21.2450
   1523.22  22.0905
   1543.16  22.9830
   1563.36  23.9113
   1583.82  24.8771
   1604.55  25.8819
   1625.55  26.9272
   1646.83  28.0146
   1668.39  29.1461
   1690.23  30.3235
   1712.35  31.5481
   1734.76  32.8221
   1757.47  34.1476
   1780.48  35.5267
   1803.78  36.9613
   1827.39  38.4537
   1851.31  40.0063
   1875.54  41.6216
   1900.09  43.3022
   1924.97  45.0503
   1950.16  46.8690
   1975.69  48.7610
   2001.55  50.7295
   2027.75  52.7817
   2054.29  54.9565
   2081.18  57.2213
   2108.42  59.5790
   2136.02  62.0337
   2163.98  64.5896
   2192.31  67.2503
   2221.00  70.0206
   2250.07  72.9047
   2279.53  75.9078
   2309.36  79.0344
   2339.59  82.2886
   2370.22  85.6775
   2401.24  89.2052
   2432.67  92.8777
   2464.51  96.7010
   2496.77  100.682
   2529.46  104.825
   2562.56  109.139
   2596.11  113.629
   2630.09  118.305
   2664.52  123.172
   2699.39  128.237
   2734.73  133.512
   2770.52  139.002
   2806.79  144.716
   2843.53  150.665
   2880.75  156.857
   2918.46  163.301
   2956.66  170.009
   2995.36  176.992
   3034.57  184.297
   3074.29  192.011
   3114.53  200.045
   3155.29  208.414
   3196.60  217.131
   3238.44  226.209
   3280.83  235.664
   3323.77  245.512
   3367.28  255.769
   3411.35  266.451
   3456.01  277.576
   3501.24  289.162
   3547.07  301.228
   3593.50  313.791
   3640.54  326.873
   3688.19  340.495
   3736.47  354.679
   3785.38  369.447
   3834.93  384.822
   3885.13  400.828
   3935.98  417.491
   3987.50  434.837
   4039.69  452.900
   4092.57  471.702
   4146.14  491.462
   4200.41  512.081
   4255.39  533.552
   4311.09  555.906
   4367.52  579.179
   4424.69  603.410
   4482.61  628.633
   4541.29  654.888
   4600.73  682.216
   4660.95  710.659
   4721.96  740.255
   4783.77  771.053
   4846.39  803.101
   4909.82  836.443
   4974.09  871.129
   5039.20  907.216
   5105.16  944.750
   5171.98  983.784
   5239.68  1024.49
   5308.27  1067.08
   5377.75  1111.38
   5448.14  1157.44
   5519.45  1205.34
   5591.70  1255.12
   5664.89  1306.86
   5739.04  1360.64
   5814.17  1416.52
   5890.27  1474.56
   5967.37  1534.86
   6045.48  1597.48
   6124.61  1662.51
   6204.78  1730.02
   6286.00  1800.09
   6368.28  1873.05
   6451.64  1949.02
   6536.09  2027.83
   6621.64  2109.57
   6708.31  2194.32
   6796.12  2282.18
   6885.08  2373.22
   6975.20  2467.53
   7066.50  2565.21
   7159.00  2666.34
   7252.71  2771.00
   7347.64  2879.26
   7443.82  2991.23
   7541.26  3106.98
   7639.97  3226.58
   7739.97  3350.14
   7841.28  3477.71
   7943.92  3609.34
   8047.90  3745.21
   8153.25  3885.48
   8259.97  4030.03
   8368.09  4179.55
   8477.62  4334.12
   8588.59  4493.22
   8701.01  4656.87
   8814.90  4825.12
   8930.29  4998.00
   9047.18  5175.51
   9165.60  5357.63
   9285.58  5544.39
   9407.12  5735.75
   9530.25  5931.68
   9655.00  6132.14
   9781.38  6337.08
   9909.41  6546.43
   10039.1  6760.65
   10170.5  6980.48
   10303.7  7204.71
   10438.5  7433.22
   10575.2  7665.88
   10713.6  7902.58
   10853.8  8143.16
   10995.9  8387.50
   11139.8  8635.38
   11285.6  8886.57
   11433.4  9140.96
   11583.0  9398.25
   11734.6  9658.23
   11888.2  9920.66
   12043.8  10185.3
   12201.5  10451.8
   12361.2  10720.0
   12523.0  10991.2
   12686.9  11264.2
   12853.0  11538.0
   13021.2  11812.2
   13191.7  12086.5
   13364.3  12360.5
   13539.3  12634.1
   13716.5  12906.7
   13896.0  13178.0
   14077.9  13447.8
   14262.2  13715.6
   14448.9  13981.2
   14638.0  14244.2
   14829.6  14504.3
   15023.7  14762.7
   15220.4  15029.2
   15419.6  15292.9
   15621.5  15553.4
   15825.9  15810.7
   16033.1  16064.3
   16243.0  16314.1
   16455.6  16561.1
   16671.0  16804.4
   16889.2  17043.1
   17110.2  17277.1
   17334.2  17506.3
   17561.1  17730.4
   17791.0  17949.4
   18023.8  18163.0
   18259.8  18371.2
   18498.8  18574.0
   18740.9  18771.1
   18986.2  18962.5
   19234.8  19148.3
   19486.5  19328.3
   19741.6  19502.6
   20000.0  19671.0
