 Be Density=2.848, Angle=90.deg
 Photon Energy (eV), Atten Length (microns)
   30.0000  7.601136E-02
   30.3927  7.960492E-02
   30.7905  8.336798E-02
   31.1935  8.730914E-02
   31.6019  9.143674E-02
   32.0155  9.575941E-02
   32.4346  0.100286
   32.8591  0.105027
   33.2892  0.109993
   33.7250  0.115193
   34.1664  0.119960
   34.6136  0.124244
   35.0667  0.128236
   35.5257  0.132356
   35.9907  0.136608
   36.4618  0.140998
   36.9391  0.145528
   37.4226  0.150204
   37.9125  0.155030
   38.4087  0.160011
   38.9115  0.165102
   39.4208  0.167565
   39.9368  0.170900
   40.4596  0.174230
   40.9891  0.177521
   41.5257  0.181956
   42.0692  0.185805
   42.6199  0.190083
   43.1778  0.194152
   43.7429  0.198401
   44.3155  0.202376
   44.8956  0.207104
   45.4832  0.212557
   46.0786  0.218011
   46.6817  0.222718
   47.2928  0.227429
   47.9118  0.231878
   48.5390  0.235010
   49.1743  0.238169
   49.8180  0.242893
   50.4701  0.244301
   51.1307  0.245416
   51.8000  0.246536
   52.4780  0.248680
   53.1649  0.251826
   53.8608  0.256778
   54.5658  0.261413
   55.2801  0.265893
   56.0037  0.271136
   56.7367  0.278559
   57.4794  0.285285
   58.2318  0.291380
   58.9940  0.298238
   59.7662  0.303914
   60.5485  0.308852
   61.3411  0.314385
   62.1440  0.317772
   62.9574  0.322232
   63.7815  0.325784
   64.6164  0.329834
   65.4622  0.333158
   66.3190  0.337943
   67.1871  0.341866
   68.0666  0.346454
   68.9575  0.351650
   69.8601  0.358439
   70.7746  0.364623
   71.7010  0.369333
   72.6395  0.374322
   73.5903  0.378832
   74.5536  0.383733
   75.5294  0.387844
   76.5181  0.390727
   77.5197  0.393735
   78.5344  0.396622
   79.5623  0.399881
   80.6038  0.402375
   81.6588  0.404982
   82.7277  0.408521
   83.8106  0.412424
   84.9076  0.417540
   86.0190  0.422626
   87.1450  0.428323
   88.2857  0.434364
   89.4413  0.440603
   90.6120  0.446989
   91.7981  0.453486
   92.9997  0.460081
   94.2170  0.466448
   95.4502  0.472674
   96.6996  0.478961
   97.9654  0.484403
   99.2477  0.491001
   100.547  0.497556
   101.863  0.504932
   103.196  0.510862
   104.547  0.517596
   105.916  0.525767
   107.302  0.527040
   108.706  0.516824
   110.129  0.485256
   111.571  0.385787
   113.031  2.684757E-02
   114.511  2.769506E-02
   116.010  2.655194E-02
   117.528  2.171015E-02
   119.067  1.897153E-02
   120.625  1.813431E-02
   122.204  1.672473E-02
   123.804  1.642998E-02
   125.424  1.430249E-02
   127.066  1.505171E-02
   128.729  2.018060E-02
   130.414  2.698364E-02
   132.121  3.294938E-02
   133.851  3.427752E-02
   135.603  3.469560E-02
   137.378  3.557580E-02
   139.176  3.676791E-02
   140.998  3.685408E-02
   142.843  3.683516E-02
   144.713  3.739369E-02
   146.607  3.804335E-02
   148.526  3.788134E-02
   150.470  3.792883E-02
   152.440  3.826320E-02
   154.435  3.815021E-02
   156.457  3.762966E-02
   158.505  3.737846E-02
   160.579  3.785744E-02
   162.681  3.944324E-02
   164.811  4.257313E-02
   166.968  4.590318E-02
   169.154  4.911242E-02
   171.368  5.112102E-02
   173.611  5.331236E-02
   175.883  5.543574E-02
   178.185  5.877420E-02
   180.518  6.094602E-02
   182.881  6.239175E-02
   185.275  6.379191E-02
   187.700  6.525882E-02
   190.157  6.611589E-02
   192.646  6.749570E-02
   195.167  6.940774E-02
   197.722  7.105028E-02
   200.310  7.241045E-02
   202.932  7.366579E-02
   205.588  7.512890E-02
   208.279  7.734841E-02
   211.006  7.959460E-02
   213.768  8.231744E-02
   216.566  8.466888E-02
   219.400  8.747754E-02
   222.272  8.985417E-02
   225.182  9.228177E-02
   228.129  9.589726E-02
   231.115  0.100148
   234.140  0.105290
   237.205  0.108982
   240.310  0.112525
   243.456  0.115890
   246.642  0.119223
   249.871  0.120844
   253.141  0.124849
   256.455  0.129239
   259.812  0.133782
   263.213  0.138486
   266.658  0.143355
   270.148  0.148395
   273.685  0.153613
   277.267  0.159014
   280.896  0.164605
   284.573  0.170392
   288.298  0.176382
   292.072  0.182584
   295.895  0.189004
   299.768  0.195649
   303.692  0.202529
   307.667  0.209649
   311.694  0.217020
   315.774  0.224620
   319.907  0.232369
   324.095  0.240388
   328.337  0.248682
   332.635  0.257261
   336.989  0.266138
   341.400  0.275320
   345.868  0.284820
   350.396  0.294647
   354.982  0.304813
   359.629  0.315331
   364.336  0.326211
   369.105  0.337466
   373.936  0.349110
   378.831  0.361156
   383.790  0.373618
   388.813  0.386609
   393.903  0.400540
   399.059  0.414973
   404.282  0.430261
   409.574  0.446254
   414.935  0.462841
   420.367  0.480046
   425.869  0.497891
   431.443  0.516397
   437.091  0.535592
   442.812  0.555500
   448.608  0.576150
   454.480  0.597565
   460.429  0.619777
   466.456  0.642816
   472.562  0.666710
   478.747  0.691493
   485.014  0.717194
   491.363  0.743855
   497.794  0.771506
   504.310  0.800183
   510.911  0.829927
   517.599  0.860776
   524.374  0.892772
   531.238  0.925956
   538.191  0.960376
   545.236  0.996076
   552.373  1.03310
   559.603  1.07150
   566.928  1.11213
   574.349  1.15451
   581.867  1.19851
   589.483  1.24418
   597.199  1.29159
   605.016  1.34081
   612.936  1.39190
   620.959  1.44495
   629.087  1.50001
   637.321  1.55717
   645.663  1.61983
   654.115  1.68528
   662.677  1.75337
   671.351  1.82332
   680.139  1.89295
   689.041  1.96109
   698.061  2.03167
   707.198  2.10740
   716.455  2.18842
   725.833  2.27266
   735.334  2.36165
   744.959  2.45414
   754.710  2.55025
   764.589  2.65013
   774.597  2.75391
   784.736  2.86176
   795.008  2.97384
   805.414  3.09029
   815.956  3.21130
   826.637  3.33707
   837.457  3.46777
   848.419  3.60357
   859.524  3.74469
   870.775  3.89133
   882.173  4.04349
   893.720  4.20092
   905.419  4.36445
   917.270  4.53439
   929.277  4.71092
   941.441  4.89518
   953.764  5.08858
   966.248  5.28962
   978.896  5.49858
   991.709  5.71581
   1004.69  5.94164
   1017.84  6.17634
   1031.16  6.42035
   1044.66  6.67399
   1058.34  6.93770
   1072.19  7.21183
   1086.22  7.49673
   1100.44  7.79288
   1114.85  8.10067
   1129.44  8.42069
   1144.22  8.75340
   1159.20  9.09924
   1174.37  9.45873
   1189.74  9.83230
   1205.32  10.2207
   1221.09  10.6245
   1237.08  11.0442
   1253.27  11.4805
   1269.68  11.9340
   1286.29  12.4055
   1303.13  12.8955
   1320.19  13.4049
   1337.47  13.9345
   1354.98  14.4850
   1372.71  15.0575
   1390.68  15.6530
   1408.88  16.2719
   1427.33  16.9152
   1446.01  17.5839
   1464.94  18.2792
   1484.11  19.0019
   1503.54  19.7531
   1523.22  20.5392
   1543.16  21.3690
   1563.36  22.2321
   1583.82  23.1301
   1604.55  24.0643
   1625.55  25.0362
   1646.83  26.0473
   1668.39  27.0993
   1690.23  28.1940
   1712.35  29.3327
   1734.76  30.5172
   1757.47  31.7496
   1780.48  33.0318
   1803.78  34.3657
   1827.39  35.7533
   1851.31  37.1968
   1875.54  38.6987
   1900.09  40.2613
   1924.97  41.8867
   1950.16  43.5776
   1975.69  45.3368
   2001.55  47.1671
   2027.75  49.0751
   2054.29  51.0972
   2081.18  53.2030
   2108.42  55.3950
   2136.02  57.6774
   2163.98  60.0538
   2192.31  62.5277
   2221.00  65.1035
   2250.07  67.7850
   2279.53  70.5772
   2309.36  73.4843
   2339.59  76.5099
   2370.22  79.6608
   2401.24  82.9408
   2432.67  86.3554
   2464.51  89.9102
   2496.77  93.6112
   2529.46  97.4641
   2562.56  101.475
   2596.11  105.650
   2630.09  109.997
   2664.52  114.522
   2699.39  119.232
   2734.73  124.136
   2770.52  129.240
   2806.79  134.554
   2843.53  140.084
   2880.75  145.842
   2918.46  151.834
   2956.66  158.071
   2995.36  164.563
   3034.57  171.355
   3074.29  178.527
   3114.53  185.997
   3155.29  193.778
   3196.60  201.883
   3238.44  210.324
   3280.83  219.115
   3323.77  228.271
   3367.28  237.808
   3411.35  247.740
   3456.01  258.084
   3501.24  268.856
   3547.07  280.074
   3593.50  291.755
   3640.54  303.918
   3688.19  316.584
   3736.47  329.772
   3785.38  343.502
   3834.93  357.798
   3885.13  372.680
   3935.98  388.172
   3987.50  404.301
   4039.69  421.095
   4092.57  438.577
   4146.14  456.949
   4200.41  476.120
   4255.39  496.083
   4311.09  516.867
   4367.52  538.506
   4424.69  561.036
   4482.61  584.487
   4541.29  608.898
   4600.73  634.307
   4660.95  660.753
   4721.96  688.271
   4783.77  716.906
   4846.39  746.703
   4909.82  777.704
   4974.09  809.955
   5039.20  843.507
   5105.16  878.406
   5171.98  914.698
   5239.68  952.542
   5308.27  992.147
   5377.75  1033.33
   5448.14  1076.16
   5519.45  1120.69
   5591.70  1166.98
   5664.89  1215.09
   5739.04  1265.09
   5814.17  1317.04
   5890.27  1371.01
   5967.37  1427.07
   6045.48  1485.30
   6124.61  1545.76
   6204.78  1608.53
   6286.00  1673.68
   6368.28  1741.51
   6451.64  1812.15
   6536.09  1885.43
   6621.64  1961.43
   6708.31  2040.23
   6796.12  2121.91
   6885.08  2206.56
   6975.20  2294.25
   7066.50  2385.07
   7159.00  2479.10
   7252.71  2576.40
   7347.64  2677.07
   7443.82  2781.17
   7541.26  2888.79
   7639.97  2999.99
   7739.97  3114.87
   7841.28  3233.49
   7943.92  3355.87
   8047.90  3482.21
   8153.25  3612.62
   8259.97  3747.02
   8368.09  3886.05
   8477.62  4029.76
   8588.59  4177.68
   8701.01  4329.84
   8814.90  4486.28
   8930.29  4647.02
   9047.18  4812.06
   9165.60  4981.39
   9285.58  5155.04
   9407.12  5332.96
   9530.25  5515.13
   9655.00  5701.51
   9781.38  5892.06
   9909.41  6086.71
   10039.1  6285.88
   10170.5  6490.28
   10303.7  6698.76
   10438.5  6911.23
   10575.2  7127.54
   10713.6  7347.63
   10853.8  7571.31
   10995.9  7798.48
   11139.8  8028.97
   11285.6  8262.51
   11433.4  8499.04
   11583.0  8738.26
   11734.6  8979.98
   11888.2  9223.99
   12043.8  9470.04
   12201.5  9717.80
   12361.2  9967.23
   12523.0  10219.4
   12686.9  10473.2
   12853.0  10727.7
   13021.2  10982.7
   13191.7  11237.7
   13364.3  11492.5
   13539.3  11746.8
   13716.5  12000.3
   13896.0  12252.5
   14077.9  12503.4
   14262.2  12752.4
   14448.9  12999.3
   14638.0  13243.9
   14829.6  13485.8
   15023.7  13726.0
   15220.4  13973.8
   15419.6  14218.9
   15621.5  14461.2
   15825.9  14700.4
   16033.1  14936.2
   16243.0  15168.4
   16455.6  15398.1
   16671.0  15624.3
   16889.2  15846.3
   17110.2  16063.8
   17334.2  16276.9
   17561.1  16485.3
   17791.0  16688.9
   18023.8  16887.5
   18259.8  17081.1
   18498.8  17269.6
   18740.9  17452.9
   18986.2  17630.9
   19234.8  17803.6
   19486.5  17971.0
   19741.6  18133.0
   20000.0  18289.6
