 Be Density=3.048, Angle=90.deg
 Photon Energy (eV), Atten Length (microns)
   30.0000  7.102374E-02
   30.3927  7.438151E-02
   30.7905  7.789763E-02
   31.1935  8.158020E-02
   31.6019  8.543695E-02
   32.0155  8.947598E-02
   32.4346  9.370590E-02
   32.8591  9.813591E-02
   33.2892  0.102775
   33.7250  0.107634
   34.1664  0.112088
   34.6136  0.116091
   35.0667  0.119821
   35.5257  0.123671
   35.9907  0.127645
   36.4618  0.131746
   36.9391  0.135979
   37.4226  0.140348
   37.9125  0.144858
   38.4087  0.149512
   38.9115  0.154268
   39.4208  0.156570
   39.9368  0.159686
   40.4596  0.162798
   40.9891  0.165873
   41.5257  0.170017
   42.0692  0.173613
   42.6199  0.177611
   43.1778  0.181412
   43.7429  0.185382
   44.3155  0.189097
   44.8956  0.193514
   45.4832  0.198610
   46.0786  0.203705
   46.6817  0.208104
   47.2928  0.212506
   47.9118  0.216663
   48.5390  0.219589
   49.1743  0.222541
   49.8180  0.226955
   50.4701  0.228270
   51.1307  0.229313
   51.8000  0.230359
   52.4780  0.232362
   53.1649  0.235302
   53.8608  0.239929
   54.5658  0.244260
   55.2801  0.248446
   56.0037  0.253345
   56.7367  0.260281
   57.4794  0.266566
   58.2318  0.272261
   58.9940  0.278668
   59.7662  0.283972
   60.5485  0.288586
   61.3411  0.293756
   62.1440  0.296920
   62.9574  0.301088
   63.7815  0.304407
   64.6164  0.308192
   65.4622  0.311297
   66.3190  0.315769
   67.1871  0.319434
   68.0666  0.323720
   68.9575  0.328576
   69.8601  0.334920
   70.7746  0.340697
   71.7010  0.345098
   72.6395  0.349761
   73.5903  0.353974
   74.5536  0.358553
   75.5294  0.362395
   76.5181  0.365088
   77.5197  0.367899
   78.5344  0.370597
   79.5623  0.373642
   80.6038  0.375973
   81.6588  0.378409
   82.7277  0.381715
   83.8106  0.385363
   84.9076  0.390142
   86.0190  0.394895
   87.1450  0.400218
   88.2857  0.405862
   89.4413  0.411692
   90.6120  0.417659
   91.7981  0.423730
   92.9997  0.429892
   94.2170  0.435841
   95.4502  0.441659
   96.6996  0.447533
   97.9654  0.452618
   99.2477  0.458783
   100.547  0.464908
   101.863  0.471800
   103.196  0.477341
   104.547  0.483633
   105.916  0.491268
   107.302  0.492458
   108.706  0.482911
   110.129  0.453415
   111.571  0.360473
   113.031  2.508592E-02
   114.511  2.587780E-02
   116.010  2.480969E-02
   117.528  2.028559E-02
   119.067  1.772668E-02
   120.625  1.694440E-02
   122.204  1.562731E-02
   123.804  1.535190E-02
   125.424  1.336401E-02
   127.066  1.406407E-02
   128.729  1.885641E-02
   130.414  2.521306E-02
   132.121  3.078735E-02
   133.851  3.202834E-02
   135.603  3.241898E-02
   137.378  3.324143E-02
   139.176  3.435533E-02
   140.998  3.443583E-02
   142.843  3.441816E-02
   144.713  3.494003E-02
   146.607  3.554707E-02
   148.526  3.539568E-02
   150.470  3.544006E-02
   152.440  3.575249E-02
   154.435  3.564691E-02
   156.457  3.516052E-02
   158.505  3.492581E-02
   160.579  3.537335E-02
   162.681  3.685510E-02
   164.811  3.977962E-02
   166.968  4.289116E-02
   169.154  4.588982E-02
   171.368  4.776662E-02
   173.611  4.981418E-02
   175.883  5.179823E-02
   178.185  5.491762E-02
   180.518  5.694694E-02
   182.881  5.829781E-02
   185.275  5.960609E-02
   187.700  6.097675E-02
   190.157  6.177758E-02
   192.646  6.306686E-02
   195.167  6.485343E-02
   197.722  6.638819E-02
   200.310  6.765911E-02
   202.932  6.883208E-02
   205.588  7.019918E-02
   208.279  7.227306E-02
   211.006  7.437187E-02
   213.768  7.691602E-02
   216.566  7.911318E-02
   219.400  8.173754E-02
   222.272  8.395821E-02
   225.182  8.622654E-02
   228.129  8.960479E-02
   231.115  9.357700E-02
   234.140  9.838110E-02
   237.205  0.101831
   240.310  0.105142
   243.456  0.108285
   246.642  0.111400
   249.871  0.112915
   253.141  0.116657
   256.455  0.120759
   259.812  0.125003
   263.213  0.129399
   266.658  0.133948
   270.148  0.138658
   273.685  0.143533
   277.267  0.148580
   280.896  0.153804
   284.573  0.159211
   288.298  0.164809
   292.072  0.170603
   295.895  0.176602
   299.768  0.182811
   303.692  0.189239
   307.667  0.195892
   311.694  0.202780
   315.774  0.209881
   319.907  0.217122
   324.095  0.224615
   328.337  0.232364
   332.635  0.240381
   336.989  0.248675
   341.400  0.257255
   345.868  0.266131
   350.396  0.275314
   354.982  0.284812
   359.629  0.294640
   364.336  0.304807
   369.105  0.315322
   373.936  0.326203
   378.831  0.337458
   383.790  0.349102
   388.813  0.361241
   393.903  0.374258
   399.059  0.387744
   404.282  0.402028
   409.574  0.416972
   414.935  0.432471
   420.367  0.448547
   425.869  0.465221
   431.443  0.482513
   437.091  0.500448
   442.812  0.519050
   448.608  0.538345
   454.480  0.558355
   460.429  0.579110
   466.456  0.600636
   472.562  0.622962
   478.747  0.646119
   485.014  0.670134
   491.363  0.695046
   497.794  0.720882
   504.310  0.747677
   510.911  0.775470
   517.599  0.804294
   524.374  0.834191
   531.238  0.865198
   538.191  0.897359
   545.236  0.930717
   552.373  0.965312
   559.603  1.00119
   566.928  1.03916
   574.349  1.07876
   581.867  1.11987
   589.483  1.16254
   597.199  1.20684
   605.016  1.25283
   612.936  1.30057
   620.959  1.35013
   629.087  1.40158
   637.321  1.45499
   645.663  1.51354
   654.115  1.57469
   662.677  1.63832
   671.351  1.70368
   680.139  1.76875
   689.041  1.83241
   698.061  1.89835
   707.198  1.96912
   716.455  2.04482
   725.833  2.12353
   735.334  2.20669
   744.959  2.29311
   754.710  2.38291
   764.589  2.47623
   774.597  2.57321
   784.736  2.67398
   795.008  2.77870
   805.414  2.88751
   815.956  3.00059
   826.637  3.11810
   837.457  3.24023
   848.419  3.36711
   859.524  3.49897
   870.775  3.63599
   882.173  3.77817
   893.720  3.92527
   905.419  4.07807
   917.270  4.23686
   929.277  4.40181
   941.441  4.57397
   953.764  4.75469
   966.248  4.94254
   978.896  5.13778
   991.709  5.34076
   1004.69  5.55177
   1017.84  5.77107
   1031.16  5.99906
   1044.66  6.23606
   1058.34  6.48247
   1072.19  6.73861
   1086.22  7.00482
   1100.44  7.28154
   1114.85  7.56913
   1129.44  7.86815
   1144.22  8.17903
   1159.20  8.50218
   1174.37  8.83808
   1189.74  9.18713
   1205.32  9.55005
   1221.09  9.92735
   1237.08  10.3195
   1253.27  10.7272
   1269.68  11.1510
   1286.29  11.5915
   1303.13  12.0494
   1320.19  12.5254
   1337.47  13.0201
   1354.98  13.5345
   1372.71  14.0695
   1390.68  14.6259
   1408.88  15.2042
   1427.33  15.8053
   1446.01  16.4301
   1464.94  17.0798
   1484.11  17.7550
   1503.54  18.4569
   1523.22  19.1915
   1543.16  19.9669
   1563.36  20.7733
   1583.82  21.6124
   1604.55  22.4853
   1625.55  23.3934
   1646.83  24.3382
   1668.39  25.3212
   1690.23  26.3440
   1712.35  27.4080
   1734.76  28.5148
   1757.47  29.6663
   1780.48  30.8644
   1803.78  32.1107
   1827.39  33.4073
   1851.31  34.7561
   1875.54  36.1595
   1900.09  37.6195
   1924.97  39.1382
   1950.16  40.7182
   1975.69  42.3619
   2001.55  44.0721
   2027.75  45.8550
   2054.29  47.7444
   2081.18  49.7120
   2108.42  51.7602
   2136.02  53.8928
   2163.98  56.1132
   2192.31  58.4248
   2221.00  60.8316
   2250.07  63.3372
   2279.53  65.9461
   2309.36  68.6625
   2339.59  71.4896
   2370.22  74.4337
   2401.24  77.4985
   2432.67  80.6890
   2464.51  84.0106
   2496.77  87.4688
   2529.46  91.0688
   2562.56  94.8162
   2596.11  98.7174
   2630.09  102.779
   2664.52  107.007
   2699.39  111.408
   2734.73  115.991
   2770.52  120.760
   2806.79  125.725
   2843.53  130.893
   2880.75  136.272
   2918.46  141.871
   2956.66  147.699
   2995.36  153.765
   3034.57  160.111
   3074.29  166.813
   3114.53  173.792
   3155.29  181.063
   3196.60  188.636
   3238.44  196.523
   3280.83  204.737
   3323.77  213.292
   3367.28  222.204
   3411.35  231.484
   3456.01  241.149
   3501.24  251.214
   3547.07  261.697
   3593.50  272.611
   3640.54  283.976
   3688.19  295.810
   3736.47  308.133
   3785.38  320.963
   3834.93  334.320
   3885.13  348.226
   3935.98  362.702
   3987.50  377.772
   4039.69  393.464
   4092.57  409.799
   4146.14  426.966
   4200.41  444.879
   4255.39  463.532
   4311.09  482.952
   4367.52  503.171
   4424.69  524.222
   4482.61  546.135
   4541.29  568.944
   4600.73  592.686
   4660.95  617.397
   4721.96  643.109
   4783.77  669.865
   4846.39  697.707
   4909.82  726.674
   4974.09  756.808
   5039.20  788.158
   5105.16  820.767
   5171.98  854.679
   5239.68  890.040
   5308.27  927.045
   5377.75  965.528
   5448.14  1005.55
   5519.45  1047.16
   5591.70  1090.41
   5664.89  1135.36
   5739.04  1182.08
   5814.17  1230.62
   5890.27  1281.05
   5967.37  1333.43
   6045.48  1387.84
   6124.61  1444.33
   6204.78  1502.98
   6286.00  1563.85
   6368.28  1627.24
   6451.64  1693.24
   6536.09  1761.71
   6621.64  1832.73
   6708.31  1906.35
   6796.12  1982.68
   6885.08  2061.78
   6975.20  2143.71
   7066.50  2228.57
   7159.00  2316.43
   7252.71  2407.35
   7347.64  2501.41
   7443.82  2598.68
   7541.26  2699.24
   7639.97  2803.14
   7739.97  2910.49
   7841.28  3021.32
   7943.92  3135.67
   8047.90  3253.72
   8153.25  3375.57
   8259.97  3501.15
   8368.09  3631.06
   8477.62  3765.34
   8588.59  3903.56
   8701.01  4045.73
   8814.90  4191.90
   8930.29  4342.10
   9047.18  4496.31
   9165.60  4654.53
   9285.58  4816.78
   9407.12  4983.03
   9530.25  5153.24
   9655.00  5327.39
   9781.38  5505.44
   9909.41  5687.32
   10039.1  5873.42
   10170.5  6064.41
   10303.7  6259.21
   10438.5  6457.73
   10575.2  6659.86
   10713.6  6865.50
   10853.8  7074.50
   10995.9  7286.77
   11139.8  7502.13
   11285.6  7720.35
   11433.4  7941.36
   11583.0  8164.88
   11734.6  8390.74
   11888.2  8618.74
   12043.8  8848.65
   12201.5  9080.15
   12361.2  9313.22
   12523.0  9548.80
   12686.9  9785.97
   12853.0  10023.8
   13021.2  10262.1
   13191.7  10500.3
   13364.3  10738.4
   13539.3  10976.0
   13716.5  11212.9
   13896.0  11448.6
   14077.9  11683.0
   14262.2  11915.6
   14448.9  12146.4
   14638.0  12374.9
   14829.6  12600.9
   15023.7  12825.4
   15220.4  13056.9
   15419.6  13285.9
   15621.5  13512.3
   15825.9  13735.8
   16033.1  13956.1
   16243.0  14173.1
   16455.6  14387.7
   16671.0  14599.1
   16889.2  14806.5
   17110.2  15009.8
   17334.2  15208.9
   17561.1  15403.6
   17791.0  15593.8
   18023.8  15779.4
   18259.8  15960.3
   18498.8  16136.4
   18740.9  16307.7
   18986.2  16474.0
   19234.8  16635.4
   19486.5  16791.8
   19741.6  16943.2
   20000.0  17089.5
