 Be Density=5.048, Angle=90.deg
 Photon Energy (eV), Atten Length (microns)
   30.0000  4.288439E-02
   30.3506  4.469125E-02
   30.7053  4.657396E-02
   31.0641  4.853613E-02
   31.4271  5.058099E-02
   31.7944  5.271206E-02
   32.1659  5.493276E-02
   32.5418  5.724714E-02
   32.9221  5.965909E-02
   33.3068  6.217266E-02
   33.6960  6.479210E-02
   34.0898  6.723386E-02
   34.4882  6.948015E-02
   34.8912  7.147127E-02
   35.2990  7.351923E-02
   35.7115  7.562593E-02
   36.1288  7.779318E-02
   36.5510  8.002254E-02
   36.9781  8.231562E-02
   37.4103  8.467445E-02
   37.8474  8.710118E-02
   38.2897  8.959708E-02
   38.7372  9.216452E-02
   39.1899  9.407970E-02
   39.6478  9.527488E-02
   40.1112  9.713267E-02
   40.5799  9.865788E-02
   41.0541  0.100362
   41.5339  0.102699
   42.0192  0.104633
   42.5103  0.106877
   43.0071  0.108653
   43.5096  0.110981
   44.0181  0.112869
   44.5325  0.115320
   45.0529  0.117733
   45.5794  0.120430
   46.1120  0.123145
   46.6509  0.125518
   47.1961  0.127891
   47.7476  0.130235
   48.3056  0.132161
   48.8701  0.133195
   49.4412  0.135832
   50.0190  0.137398
   50.6035  0.137958
   51.1948  0.138520
   51.7931  0.139085
   52.3983  0.140097
   53.0107  0.141677
   53.6302  0.143772
   54.2569  0.146491
   54.8909  0.148301
   55.5324  0.151033
   56.1814  0.153980
   56.8379  0.157741
   57.5021  0.161032
   58.1741  0.164045
   58.8539  0.167586
   59.5417  0.170660
   60.2375  0.173152
   60.9414  0.175660
   61.6536  0.178191
   62.3741  0.179793
   63.1030  0.182308
   63.8404  0.183872
   64.5864  0.186025
   65.3412  0.187603
   66.1048  0.190144
   66.8773  0.192012
   67.6588  0.194260
   68.4495  0.196723
   69.2494  0.199357
   70.0586  0.203254
   70.8773  0.206009
   71.7056  0.208385
   72.5436  0.210789
   73.3913  0.213326
   74.2490  0.215621
   75.1166  0.217814
   75.9944  0.219605
   76.8825  0.221194
   77.7810  0.222731
   78.6899  0.224138
   79.6095  0.225670
   80.5398  0.226927
   81.4810  0.228257
   82.4332  0.229932
   83.3965  0.231726
   84.3711  0.234158
   85.3571  0.236730
   86.3545  0.239333
   87.3637  0.242295
   88.3846  0.245361
   89.4175  0.248508
   90.4624  0.251723
   91.5196  0.254988
   92.5891  0.258298
   93.6711  0.261604
   94.7657  0.264728
   95.8732  0.267876
   96.9935  0.271057
   98.1270  0.273538
   99.2737  0.277112
   100.434  0.280564
   101.608  0.284022
   102.795  0.287183
   103.996  0.290002
   105.211  0.294560
   106.441  0.297786
   107.685  0.296826
   108.943  0.290268
   110.216  0.271640
   111.504  0.228078
   112.807  2.137554E-02
   114.126  1.419335E-02
   115.459  1.562174E-02
   116.809  1.431023E-02
   118.174  1.050749E-02
   119.555  1.066935E-02
   120.952  1.031030E-02
   122.365  9.465440E-03
   123.795  9.278244E-03
   125.242  8.215678E-03
   126.705  8.213195E-03
   128.186  1.036609E-02
   129.684  1.353892E-02
   131.200  1.727781E-02
   132.733  1.906840E-02
   134.284  1.936551E-02
   135.853  1.959022E-02
   137.441  2.009814E-02
   139.047  2.071194E-02
   140.672  2.084313E-02
   142.316  2.074671E-02
   143.979  2.095222E-02
   145.661  2.130276E-02
   147.364  2.143930E-02
   149.086  2.140277E-02
   150.828  2.146429E-02
   152.590  2.157449E-02
   154.374  2.152793E-02
   156.178  2.126897E-02
   158.003  2.103275E-02
   159.849  2.121861E-02
   161.717  2.173552E-02
   163.607  2.297749E-02
   165.519  2.463278E-02
   167.453  2.631135E-02
   169.410  2.790286E-02
   171.390  2.884896E-02
   173.393  2.993439E-02
   175.419  3.094576E-02
   177.469  3.241866E-02
   179.543  3.395637E-02
   181.641  3.465290E-02
   183.764  3.548477E-02
   185.911  3.619229E-02
   188.084  3.700189E-02
   190.282  3.734409E-02
   192.505  3.804060E-02
   194.755  3.906494E-02
   197.031  3.982230E-02
   199.333  4.046262E-02
   201.663  4.126084E-02
   204.019  4.182591E-02
   206.403  4.272007E-02
   208.816  4.391002E-02
   211.256  4.504851E-02
   213.724  4.642069E-02
   216.222  4.759132E-02
   218.749  4.899656E-02
   221.305  5.014401E-02
   223.891  5.167006E-02
   226.508  5.286920E-02
   229.155  5.510174E-02
   231.833  5.741750E-02
   234.542  5.975498E-02
   237.283  6.156161E-02
   240.056  6.323191E-02
   242.861  6.507067E-02
   245.699  6.696308E-02
   248.570  6.789195E-02
   251.475  6.922399E-02
   254.414  7.138260E-02
   257.387  7.362042E-02
   260.395  7.592820E-02
   263.438  7.830899E-02
   266.516  8.076432E-02
   269.631  8.329655E-02
   272.782  8.590818E-02
   275.969  8.860201E-02
   279.194  9.137997E-02
   282.457  9.424489E-02
   285.758  9.719964E-02
   289.097  0.100247
   292.476  0.103390
   295.894  0.106632
   299.351  0.109975
   302.850  0.113423
   306.389  0.116980
   309.969  0.120647
   313.592  0.124430
   317.256  0.128284
   320.964  0.132231
   324.714  0.136301
   328.509  0.140494
   332.348  0.144817
   336.232  0.149273
   340.161  0.153866
   344.136  0.158600
   348.158  0.163480
   352.226  0.168510
   356.342  0.173695
   360.507  0.179040
   364.720  0.184549
   368.982  0.190227
   373.294  0.196080
   377.656  0.202114
   382.069  0.208333
   386.534  0.214743
   391.051  0.221553
   395.621  0.228672
   400.244  0.236019
   404.922  0.243825
   409.654  0.251906
   414.441  0.260255
   419.284  0.268881
   424.184  0.277793
   429.141  0.287000
   434.156  0.296512
   439.229  0.306340
   444.362  0.316493
   449.555  0.326983
   454.808  0.337820
   460.123  0.349017
   465.500  0.360585
   470.940  0.372536
   476.444  0.384883
   482.011  0.397640
   487.644  0.410819
   493.343  0.424436
   499.108  0.438503
   504.941  0.453036
   510.841  0.468052
   516.811  0.483565
   522.851  0.499592
   528.961  0.516150
   535.142  0.533257
   541.396  0.550932
   547.723  0.569192
   554.123  0.588057
   560.599  0.607546
   567.150  0.628153
   573.778  0.649496
   580.483  0.671564
   587.266  0.694381
   594.129  0.717973
   601.072  0.742369
   608.096  0.767592
   615.203  0.793672
   622.392  0.820638
   629.665  0.848521
   637.024  0.877350
   644.468  0.908737
   651.999  0.941471
   659.618  0.975381
   667.327  1.01051
   675.125  1.04544
   683.015  1.08031
   690.996  1.11497
   699.071  1.15075
   707.241  1.18917
   715.506  1.22993
   723.867  1.27210
   732.326  1.31637
   740.884  1.36233
   749.542  1.40990
   758.301  1.45913
   767.163  1.51008
   776.128  1.56280
   785.198  1.61737
   794.374  1.67384
   803.657  1.73228
   813.048  1.79276
   822.550  1.85535
   832.162  1.92014
   841.887  1.98719
   851.725  2.05657
   861.678  2.12837
   871.748  2.20268
   881.935  2.27947
   892.242  2.35859
   902.668  2.44045
   913.217  2.52517
   923.889  2.61283
   934.686  2.70351
   945.608  2.79837
   956.659  2.89694
   967.838  2.99898
   979.148  3.10460
   990.591  3.21395
   1002.17  3.32716
   1013.88  3.44433
   1025.73  3.56565
   1037.71  3.69123
   1049.84  3.82125
   1062.11  3.95588
   1074.52  4.09522
   1087.08  4.23945
   1099.78  4.38876
   1112.63  4.54330
   1125.64  4.70331
   1138.79  4.86899
   1152.10  5.04050
   1165.56  5.21805
   1179.18  5.40182
   1192.96  5.59202
   1206.90  5.78898
   1221.01  5.99288
   1235.28  6.20396
   1249.71  6.42245
   1264.31  6.64866
   1279.09  6.88282
   1294.04  7.12521
   1309.16  7.37617
   1324.46  7.63594
   1339.94  7.90487
   1355.59  8.18328
   1371.44  8.47169
   1387.46  8.77033
   1403.68  9.07954
   1420.08  9.39958
   1436.68  9.73087
   1453.46  10.0739
   1470.45  10.4290
   1487.63  10.7966
   1505.02  11.1771
   1522.61  11.5737
   1540.40  11.9906
   1558.40  12.4223
   1576.61  12.8696
   1595.04  13.3331
   1613.68  13.8131
   1632.53  14.3105
   1651.61  14.8257
   1670.91  15.3595
   1690.44  15.9127
   1710.19  16.4856
   1730.18  17.0791
   1750.40  17.6940
   1770.85  18.3311
   1791.55  18.9910
   1812.48  19.6747
   1833.66  20.3829
   1855.09  21.1166
   1876.77  21.8767
   1898.70  22.6641
   1920.89  23.4799
   1943.34  24.3249
   1966.05  25.2003
   1989.02  26.1073
   2012.27  27.0469
   2035.78  28.0294
   2059.57  29.0590
   2083.64  30.1266
   2107.99  31.2331
   2132.62  32.3803
   2157.55  33.5696
   2182.76  34.8025
   2208.27  36.0806
   2234.07  37.4055
   2260.18  38.7789
   2286.59  40.2030
   2313.31  41.6791
   2340.35  43.2089
   2367.70  44.7953
   2395.37  46.4396
   2423.36  48.1440
   2451.68  49.9108
   2480.33  51.7424
   2509.31  53.6410
   2538.64  55.6091
   2568.30  57.6489
   2598.32  59.7634
   2628.68  61.9554
   2659.40  64.2277
   2690.48  66.5827
   2721.92  69.0239
   2753.73  71.5544
   2785.91  74.1772
   2818.46  76.8955
   2851.40  79.7131
   2884.72  82.6335
   2918.43  85.6601
   2952.54  88.7970
   2987.04  92.0482
   3021.95  95.4188
   3057.26  98.9741
   3092.99  102.666
   3129.14  106.495
   3165.70  110.467
   3202.70  114.585
   3240.12  118.856
   3277.99  123.284
   3316.29  127.877
   3355.05  132.640
   3394.26  137.579
   3433.92  142.700
   3474.05  148.011
   3514.65  153.517
   3555.72  159.227
   3597.27  165.146
   3639.31  171.284
   3681.84  177.647
   3724.87  184.245
   3768.40  191.084
   3812.43  198.175
   3856.99  205.525
   3902.06  213.144
   3947.66  221.042
   3993.79  229.228
   4040.46  237.716
   4087.68  246.514
   4135.45  255.707
   4183.77  265.272
   4232.67  275.189
   4282.13  285.471
   4332.17  296.129
   4382.80  307.178
   4434.01  318.632
   4485.83  330.504
   4538.25  342.809
   4591.29  355.562
   4644.94  368.780
   4699.22  382.476
   4754.14  396.668
   4809.69  411.373
   4865.90  426.608
   4922.76  442.393
   4980.29  458.745
   5038.49  475.684
   5097.37  493.230
   5156.94  511.402
   5217.20  530.219
   5278.17  549.876
   5339.85  570.241
   5402.25  591.329
   5465.38  613.170
   5529.25  635.779
   5593.87  659.184
   5659.24  683.412
   5725.37  708.489
   5792.28  734.437
   5859.97  761.287
   5928.45  789.067
   5997.73  817.799
   6067.82  847.526
   6138.73  878.266
   6210.46  910.048
   6283.04  942.906
   6356.46  976.962
   6430.75  1012.31
   6505.90  1048.84
   6581.92  1086.58
   6658.84  1125.56
   6736.66  1165.82
   6815.38  1207.40
   6895.02  1250.31
   6975.60  1294.60
   7057.12  1340.30
   7139.59  1387.44
   7223.02  1436.05
   7307.43  1486.15
   7392.82  1537.80
   7479.22  1591.01
   7566.62  1645.81
   7655.04  1702.24
   7744.50  1760.33
   7835.00  1820.09
   7926.56  1881.56
   8019.19  1944.78
   8112.91  2009.85
   8207.71  2076.72
   8303.63  2145.39
   8400.67  2216.42
   8498.84  2289.38
   8598.15  2364.23
   8698.63  2441.00
   8800.29  2519.69
   8903.13  2600.32
   9007.17  2682.88
   9112.43  2767.38
   9218.91  2853.81
   9326.65  2942.19
   9435.64  3032.48
   9545.90  3124.69
   9657.46  3218.78
   9770.32  3314.76
   9884.49  3412.58
   10000.0  3512.23
