 Be Density=4.048, Angle=90.deg
 Photon Energy (eV), Atten Length (microns)
   30.0000  5.347836E-02
   30.3927  5.600663E-02
   30.7905  5.865416E-02
   31.1935  6.142699E-02
   31.6019  6.433100E-02
   32.0155  6.737223E-02
   32.4346  7.055721E-02
   32.8591  7.389286E-02
   33.2892  7.738628E-02
   33.7250  8.104477E-02
   34.1664  8.439853E-02
   34.6136  8.741270E-02
   35.0667  9.022127E-02
   35.5257  9.311980E-02
   35.9907  9.611183E-02
   36.4618  9.920001E-02
   36.9391  0.102387
   37.4226  0.105677
   37.9125  0.109073
   38.4087  0.112577
   38.9115  0.116159
   39.4208  0.117892
   39.9368  0.120238
   40.4596  0.122581
   40.9891  0.124896
   41.5257  0.128017
   42.0692  0.130724
   42.6199  0.133735
   43.1778  0.136597
   43.7429  0.139586
   44.3155  0.142383
   44.8956  0.145709
   45.4832  0.149546
   46.0786  0.153383
   46.6817  0.156695
   47.2928  0.160009
   47.9118  0.163139
   48.5390  0.165343
   49.1743  0.167565
   49.8180  0.170889
   50.4701  0.171880
   51.1307  0.172664
   51.8000  0.173452
   52.4780  0.174960
   53.1649  0.177174
   53.8608  0.180658
   54.5658  0.183919
   55.2801  0.187071
   56.0037  0.190760
   56.7367  0.195982
   57.4794  0.200715
   58.2318  0.205003
   58.9940  0.209827
   59.7662  0.213821
   60.5485  0.217295
   61.3411  0.221188
   62.1440  0.223571
   62.9574  0.226709
   63.7815  0.229208
   64.6164  0.232057
   65.4622  0.234396
   66.3190  0.237763
   67.1871  0.240522
   68.0666  0.243750
   68.9575  0.247406
   69.8601  0.252183
   70.7746  0.256533
   71.7010  0.259847
   72.6395  0.263357
   73.5903  0.266530
   74.5536  0.269978
   75.5294  0.272871
   76.5181  0.274899
   77.5197  0.277015
   78.5344  0.279047
   79.5623  0.281339
   80.6038  0.283094
   81.6588  0.284928
   82.7277  0.287418
   83.8106  0.290164
   84.9076  0.293763
   86.0190  0.297342
   87.1450  0.301350
   88.2857  0.305600
   89.4413  0.309990
   90.6120  0.314483
   91.7981  0.319054
   92.9997  0.323693
   94.2170  0.328173
   95.4502  0.332553
   96.6996  0.336977
   97.9654  0.340806
   99.2477  0.345447
   100.547  0.350059
   101.863  0.355249
   103.196  0.359421
   104.547  0.364159
   105.916  0.369907
   107.302  0.370803
   108.706  0.363615
   110.129  0.341406
   111.571  0.271424
   113.031  1.888881E-02
   114.511  1.948507E-02
   116.010  1.868082E-02
   117.528  1.527433E-02
   119.067  1.334756E-02
   120.625  1.275853E-02
   122.204  1.176681E-02
   123.804  1.155944E-02
   125.424  1.006262E-02
   127.066  1.058974E-02
   128.729  1.419821E-02
   130.414  1.898454E-02
   132.121  2.318178E-02
   133.851  2.411620E-02
   135.603  2.441035E-02
   137.378  2.502962E-02
   139.176  2.586834E-02
   140.998  2.592896E-02
   142.843  2.591565E-02
   144.713  2.630861E-02
   146.607  2.676568E-02
   148.526  2.665169E-02
   150.470  2.668511E-02
   152.440  2.692036E-02
   154.435  2.684086E-02
   156.457  2.647462E-02
   158.505  2.629789E-02
   160.579  2.663488E-02
   162.681  2.775058E-02
   164.811  2.995264E-02
   166.968  3.229553E-02
   169.154  3.455340E-02
   171.368  3.596657E-02
   173.611  3.750831E-02
   175.883  3.900222E-02
   178.185  4.135102E-02
   180.518  4.287902E-02
   182.881  4.389618E-02
   185.275  4.488127E-02
   187.700  4.591333E-02
   190.157  4.651633E-02
   192.646  4.748710E-02
   195.167  4.883232E-02
   197.722  4.998794E-02
   200.310  5.094490E-02
   202.932  5.182811E-02
   205.588  5.285748E-02
   208.279  5.441905E-02
   211.006  5.599937E-02
   213.768  5.791504E-02
   216.566  5.956941E-02
   219.400  6.154547E-02
   222.272  6.321756E-02
   225.182  6.492552E-02
   228.129  6.746922E-02
   231.115  7.046017E-02
   234.140  7.407748E-02
   237.205  7.667515E-02
   240.310  7.916796E-02
   243.456  8.153501E-02
   246.642  8.388045E-02
   249.871  8.502074E-02
   253.141  8.783855E-02
   256.455  9.092692E-02
   259.812  9.412304E-02
   263.213  9.743260E-02
   266.658  0.100858
   270.148  0.104404
   273.685  0.108075
   277.267  0.111876
   280.896  0.115809
   284.573  0.119881
   288.298  0.124095
   292.072  0.128458
   295.895  0.132975
   299.768  0.137650
   303.692  0.142491
   307.667  0.147500
   311.694  0.152686
   315.774  0.158033
   319.907  0.163485
   324.095  0.169127
   328.337  0.174962
   332.635  0.180998
   336.989  0.187243
   341.400  0.193704
   345.868  0.200388
   350.396  0.207301
   354.982  0.214454
   359.629  0.221853
   364.336  0.229508
   369.105  0.237427
   373.936  0.245619
   378.831  0.254094
   383.790  0.262861
   388.813  0.272002
   393.903  0.281803
   399.059  0.291958
   404.282  0.302713
   409.574  0.313965
   414.935  0.325635
   420.367  0.337740
   425.869  0.350295
   431.443  0.363315
   437.091  0.376820
   442.812  0.390826
   448.608  0.405354
   454.480  0.420422
   460.429  0.436049
   466.456  0.452258
   472.562  0.469069
   478.747  0.486505
   485.014  0.504587
   491.363  0.523345
   497.794  0.542798
   504.310  0.562974
   510.911  0.583901
   517.599  0.605605
   524.374  0.628116
   531.238  0.651463
   538.191  0.675680
   545.236  0.700797
   552.373  0.726845
   559.603  0.753861
   566.928  0.782449
   574.349  0.812266
   581.867  0.843219
   589.483  0.875350
   597.199  0.908708
   605.016  0.943337
   612.936  0.979285
   620.959  1.01660
   629.087  1.05534
   637.321  1.09556
   645.663  1.13964
   654.115  1.18569
   662.677  1.23359
   671.351  1.28281
   680.139  1.33180
   689.041  1.37974
   698.061  1.42939
   707.198  1.48268
   716.455  1.53968
   725.833  1.59894
   735.334  1.66156
   744.959  1.72663
   754.710  1.79425
   764.589  1.86452
   774.597  1.93753
   784.736  2.01341
   795.008  2.09226
   805.414  2.17420
   815.956  2.25934
   826.637  2.34782
   837.457  2.43978
   848.419  2.53532
   859.524  2.63460
   870.775  2.73777
   882.173  2.84483
   893.720  2.95559
   905.419  3.07064
   917.270  3.19020
   929.277  3.31440
   941.441  3.44404
   953.764  3.58011
   966.248  3.72155
   978.896  3.86856
   991.709  4.02140
   1004.69  4.18028
   1017.84  4.34541
   1031.16  4.51708
   1044.66  4.69553
   1058.34  4.88107
   1072.19  5.07394
   1086.22  5.27438
   1100.44  5.48274
   1114.85  5.69928
   1129.44  5.92444
   1144.22  6.15852
   1159.20  6.40184
   1174.37  6.65476
   1189.74  6.91759
   1205.32  7.19085
   1221.09  7.47494
   1237.08  7.77024
   1253.27  8.07719
   1269.68  8.39629
   1286.29  8.72796
   1303.13  9.07274
   1320.19  9.43115
   1337.47  9.80371
   1354.98  10.1910
   1372.71  10.5938
   1390.68  11.0128
   1408.88  11.4482
   1427.33  11.9008
   1446.01  12.3713
   1464.94  12.8605
   1484.11  13.3689
   1503.54  13.8974
   1523.22  14.4505
   1543.16  15.0343
   1563.36  15.6416
   1583.82  16.2734
   1604.55  16.9306
   1625.55  17.6144
   1646.83  18.3258
   1668.39  19.0659
   1690.23  19.8361
   1712.35  20.6372
   1734.76  21.4706
   1757.47  22.3377
   1780.48  23.2398
   1803.78  24.1782
   1827.39  25.1545
   1851.31  26.1701
   1875.54  27.2268
   1900.09  28.3261
   1924.97  29.4697
   1950.16  30.6593
   1975.69  31.8970
   2001.55  33.1847
   2027.75  34.5272
   2054.29  35.9498
   2081.18  37.4313
   2108.42  38.9736
   2136.02  40.5793
   2163.98  42.2513
   2192.31  43.9918
   2221.00  45.8040
   2250.07  47.6906
   2279.53  49.6551
   2309.36  51.7004
   2339.59  53.8291
   2370.22  56.0459
   2401.24  58.3536
   2432.67  60.7560
   2464.51  63.2570
   2496.77  65.8609
   2529.46  68.5716
   2562.56  71.3933
   2596.11  74.3307
   2630.09  77.3890
   2664.52  80.5728
   2699.39  83.8865
   2734.73  87.3367
   2770.52  90.9280
   2806.79  94.6662
   2843.53  98.5574
   2880.75  102.608
   2918.46  106.824
   2956.66  111.212
   2995.36  115.779
   3034.57  120.558
   3074.29  125.604
   3114.53  130.859
   3155.29  136.334
   3196.60  142.036
   3238.44  147.975
   3280.83  154.160
   3323.77  160.601
   3367.28  167.311
   3411.35  174.299
   3456.01  181.577
   3501.24  189.155
   3547.07  197.048
   3593.50  205.267
   3640.54  213.824
   3688.19  222.735
   3736.47  232.013
   3785.38  241.674
   3834.93  251.731
   3885.13  262.201
   3935.98  273.102
   3987.50  284.449
   4039.69  296.264
   4092.57  308.564
   4146.14  321.490
   4200.41  334.978
   4255.39  349.023
   4311.09  363.646
   4367.52  378.870
   4424.69  394.721
   4482.61  411.220
   4541.29  428.395
   4600.73  446.272
   4660.95  464.878
   4721.96  484.238
   4783.77  504.384
   4846.39  525.348
   4909.82  547.160
   4974.09  569.850
   5039.20  593.455
   5105.16  618.009
   5171.98  643.543
   5239.68  670.168
   5308.27  698.032
   5377.75  727.008
   5448.14  757.142
   5519.45  788.471
   5591.70  821.037
   5664.89  854.885
   5739.04  890.065
   5814.17  926.614
   5890.27  964.585
   5967.37  1004.03
   6045.48  1044.99
   6124.61  1087.53
   6204.78  1131.69
   6286.00  1177.53
   6368.28  1225.25
   6451.64  1274.95
   6536.09  1326.50
   6621.64  1379.98
   6708.31  1435.42
   6796.12  1492.89
   6885.08  1552.44
   6975.20  1614.14
   7066.50  1678.03
   7159.00  1744.19
   7252.71  1812.65
   7347.64  1883.47
   7443.82  1956.71
   7541.26  2032.43
   7639.97  2110.67
   7739.97  2191.49
   7841.28  2274.94
   7943.92  2361.05
   8047.90  2449.93
   8153.25  2541.68
   8259.97  2636.24
   8368.09  2734.06
   8477.62  2835.17
   8588.59  2939.24
   8701.01  3046.29
   8814.90  3156.35
   8930.29  3269.44
   9047.18  3385.56
   9165.60  3504.70
   9285.58  3626.86
   9407.12  3752.04
   9530.25  3880.21
   9655.00  4011.34
   9781.38  4145.40
   9909.41  4282.35
   10039.1  4422.48
   10170.5  4566.28
   10303.7  4712.96
   10438.5  4862.44
   10575.2  5014.64
   10713.6  5169.48
   10853.8  5326.85
   10995.9  5486.68
   11139.8  5648.84
   11285.6  5813.15
   11433.4  5979.56
   11583.0  6147.87
   11734.6  6317.93
   11888.2  6489.60
   12043.8  6662.72
   12201.5  6837.03
   12361.2  7012.52
   12523.0  7189.91
   12686.9  7368.49
   12853.0  7547.59
   13021.2  7726.96
   13191.7  7906.37
   13364.3  8085.65
   13539.3  8264.57
   13716.5  8442.90
   13896.0  8620.37
   14077.9  8796.86
   14262.2  8972.05
   14448.9  9145.78
   14638.0  9317.84
   14829.6  9488.01
   15023.7  9657.04
   15220.4  9831.38
   15419.6  10003.8
   15621.5  10174.3
   15825.9  10342.5
   16033.1  10508.5
   16243.0  10671.9
   16455.6  10833.4
   16671.0  10992.6
   16889.2  11148.8
   17110.2  11301.8
   17334.2  11451.7
   17561.1  11598.4
   17791.0  11741.6
   18023.8  11881.3
   18259.8  12017.6
   18498.8  12150.2
   18740.9  12279.1
   18986.2  12404.3
   19234.8  12525.9
   19486.5  12643.6
   19741.6  12757.6
   20000.0  12867.8
