 Be Density=5.048, Angle=90.deg
 Photon Energy (eV), Atten Length (microns)
   30.0000  4.288439E-02
   30.3927  4.491181E-02
   30.7905  4.703487E-02
   31.1935  4.925841E-02
   31.6019  5.158713E-02
   32.0155  5.402591E-02
   32.4346  5.657995E-02
   32.8591  5.925481E-02
   33.2892  6.205619E-02
   33.7250  6.498995E-02
   34.1664  6.767933E-02
   34.6136  7.009640E-02
   35.0667  7.234859E-02
   35.5257  7.467292E-02
   35.9907  7.707223E-02
   36.4618  7.954866E-02
   36.9391  8.210453E-02
   37.4226  8.474253E-02
   37.9125  8.746558E-02
   38.4087  9.027569E-02
   38.9115  9.314780E-02
   39.4208  9.453743E-02
   39.9368  9.641876E-02
   40.4596  9.829778E-02
   40.9891  0.100154
   41.5257  0.102657
   42.0692  0.104828
   42.6199  0.107242
   43.1778  0.109537
   43.7429  0.111935
   44.3155  0.114177
   44.8956  0.116845
   45.4832  0.119921
   46.0786  0.122998
   46.6817  0.125654
   47.2928  0.128312
   47.9118  0.130822
   48.5390  0.132589
   49.1743  0.134371
   49.8180  0.137036
   50.4701  0.137831
   51.1307  0.138460
   51.8000  0.139091
   52.4780  0.140301
   53.1649  0.142076
   53.8608  0.144870
   54.5658  0.147485
   55.2801  0.150012
   56.0037  0.152971
   56.7367  0.157158
   57.4794  0.160953
   58.2318  0.164392
   58.9940  0.168261
   59.7662  0.171464
   60.5485  0.174249
   61.3411  0.177371
   62.1440  0.179282
   62.9574  0.181798
   63.7815  0.183802
   64.6164  0.186087
   65.4622  0.187962
   66.3190  0.190662
   67.1871  0.192875
   68.0666  0.195464
   68.9575  0.198395
   69.8601  0.202226
   70.7746  0.205714
   71.7010  0.208372
   72.6395  0.211187
   73.5903  0.213731
   74.5536  0.216496
   75.5294  0.218816
   76.5181  0.220442
   77.5197  0.222139
   78.5344  0.223768
   79.5623  0.225606
   80.6038  0.227014
   81.6588  0.228484
   82.7277  0.230481
   83.8106  0.232683
   84.9076  0.235569
   86.0190  0.238439
   87.1450  0.241653
   88.2857  0.245061
   89.4413  0.248581
   90.6120  0.252184
   91.7981  0.255850
   92.9997  0.259570
   94.2170  0.263162
   95.4502  0.266675
   96.6996  0.270222
   97.9654  0.273292
   99.2477  0.277015
   100.547  0.280713
   101.863  0.284875
   103.196  0.288220
   104.547  0.292019
   105.916  0.296629
   107.302  0.297348
   108.706  0.291584
   110.129  0.273774
   111.571  0.217655
   113.031  1.514697E-02
   114.511  1.562511E-02
   116.010  1.498018E-02
   117.528  1.224852E-02
   119.067  1.070343E-02
   120.625  1.023109E-02
   122.204  9.435824E-03
   123.804  9.269530E-03
   125.424  8.069235E-03
   127.066  8.491931E-03
   128.729  1.138557E-02
   130.414  1.522374E-02
   132.121  1.858951E-02
   133.851  1.933882E-02
   135.603  1.957470E-02
   137.378  2.007129E-02
   139.176  2.074387E-02
   140.998  2.079247E-02
   142.843  2.078180E-02
   144.713  2.109692E-02
   146.607  2.146344E-02
   148.526  2.137204E-02
   150.470  2.139883E-02
   152.440  2.158748E-02
   154.435  2.152373E-02
   156.457  2.123005E-02
   158.505  2.108832E-02
   160.579  2.135856E-02
   162.681  2.225324E-02
   164.811  2.401907E-02
   166.968  2.589783E-02
   169.154  2.770843E-02
   171.368  2.884165E-02
   173.611  3.007798E-02
   175.883  3.127595E-02
   178.185  3.315945E-02
   180.518  3.438476E-02
   182.881  3.520042E-02
   185.275  3.599036E-02
   187.700  3.681797E-02
   190.157  3.730152E-02
   192.646  3.807999E-02
   195.167  3.915873E-02
   197.722  4.008542E-02
   200.310  4.085281E-02
   202.932  4.156105E-02
   205.588  4.238651E-02
   208.279  4.363873E-02
   211.006  4.490599E-02
   213.768  4.644217E-02
   216.566  4.776881E-02
   219.400  4.935342E-02
   222.272  5.069426E-02
   225.182  5.206389E-02
   228.129  5.410369E-02
   231.115  5.650212E-02
   234.140  5.940286E-02
   237.205  6.148593E-02
   240.310  6.348493E-02
   243.456  6.538306E-02
   246.642  6.726388E-02
   249.871  6.817828E-02
   253.141  7.043788E-02
   256.455  7.291444E-02
   259.812  7.547742E-02
   263.213  7.813137E-02
   266.658  8.087850E-02
   270.148  8.372213E-02
   273.685  8.666588E-02
   277.267  8.971323E-02
   280.896  9.286743E-02
   284.573  9.613243E-02
   288.298  9.951206E-02
   292.072  0.103011
   295.895  0.106633
   299.768  0.110382
   303.692  0.114263
   307.667  0.118281
   311.694  0.122439
   315.774  0.126727
   319.907  0.131099
   324.095  0.135623
   328.337  0.140302
   332.635  0.145143
   336.989  0.150151
   341.400  0.155331
   345.868  0.160691
   350.396  0.166235
   354.982  0.171971
   359.629  0.177904
   364.336  0.184043
   369.105  0.190393
   373.936  0.196962
   378.831  0.203758
   383.790  0.210789
   388.813  0.218119
   393.903  0.225978
   399.059  0.234121
   404.282  0.242746
   409.574  0.251769
   414.935  0.261128
   420.367  0.270834
   425.869  0.280902
   431.443  0.291343
   437.091  0.302172
   442.812  0.313404
   448.608  0.325054
   454.480  0.337137
   460.429  0.349668
   466.456  0.362666
   472.562  0.376147
   478.747  0.390129
   485.014  0.404630
   491.363  0.419671
   497.794  0.435271
   504.310  0.451450
   510.911  0.468232
   517.599  0.485636
   524.374  0.503687
   531.238  0.522410
   538.191  0.541829
   545.236  0.561970
   552.373  0.582859
   559.603  0.604523
   566.928  0.627447
   574.349  0.651358
   581.867  0.676179
   589.483  0.701945
   597.199  0.728695
   605.016  0.756464
   612.936  0.785290
   620.959  0.815215
   629.087  0.846280
   637.321  0.878529
   645.663  0.913882
   654.115  0.950806
   662.677  0.989221
   671.351  1.02869
   680.139  1.06797
   689.041  1.10642
   698.061  1.14623
   707.198  1.18896
   716.455  1.23467
   725.833  1.28220
   735.334  1.33240
   744.959  1.38459
   754.710  1.43881
   764.589  1.49516
   774.597  1.55371
   784.736  1.61456
   795.008  1.67779
   805.414  1.74349
   815.956  1.81177
   826.637  1.88272
   837.457  1.95646
   848.419  2.03307
   859.524  2.11269
   870.775  2.19543
   882.173  2.28127
   893.720  2.37009
   905.419  2.46235
   917.270  2.55823
   929.277  2.65783
   941.441  2.76178
   953.764  2.87090
   966.248  2.98432
   978.896  3.10221
   991.709  3.22477
   1004.69  3.35218
   1017.84  3.48459
   1031.16  3.62226
   1044.66  3.76536
   1058.34  3.91414
   1072.19  4.06880
   1086.22  4.22953
   1100.44  4.39662
   1114.85  4.57027
   1129.44  4.75082
   1144.22  4.93853
   1159.20  5.13365
   1174.37  5.33647
   1189.74  5.54722
   1205.32  5.76636
   1221.09  5.99417
   1237.08  6.23097
   1253.27  6.47711
   1269.68  6.73300
   1286.29  6.99896
   1303.13  7.27545
   1320.19  7.56285
   1337.47  7.86161
   1354.98  8.17218
   1372.71  8.49522
   1390.68  8.83115
   1408.88  9.18034
   1427.33  9.54329
   1446.01  9.92055
   1464.94  10.3128
   1484.11  10.7206
   1503.54  11.1444
   1523.22  11.5879
   1543.16  12.0561
   1563.36  12.5430
   1583.82  13.0496
   1604.55  13.5767
   1625.55  14.1250
   1646.83  14.6955
   1668.39  15.2890
   1690.23  15.9066
   1712.35  16.5490
   1734.76  17.2173
   1757.47  17.9126
   1780.48  18.6360
   1803.78  19.3886
   1827.39  20.1714
   1851.31  20.9859
   1875.54  21.8332
   1900.09  22.7148
   1924.97  23.6318
   1950.16  24.5858
   1975.69  25.5783
   2001.55  26.6109
   2027.75  27.6874
   2054.29  28.8282
   2081.18  30.0162
   2108.42  31.2530
   2136.02  32.5406
   2163.98  33.8814
   2192.31  35.2771
   2221.00  36.7303
   2250.07  38.2432
   2279.53  39.8185
   2309.36  41.4586
   2339.59  43.1657
   2370.22  44.9433
   2401.24  46.7938
   2432.67  48.7203
   2464.51  50.7259
   2496.77  52.8139
   2529.46  54.9877
   2562.56  57.2504
   2596.11  59.6059
   2630.09  62.0583
   2664.52  64.6114
   2699.39  67.2688
   2734.73  70.0355
   2770.52  72.9153
   2806.79  75.9130
   2843.53  79.0334
   2880.75  82.2814
   2918.46  85.6621
   2956.66  89.1809
   2995.36  92.8437
   3034.57  96.6755
   3074.29  100.722
   3114.53  104.936
   3155.29  109.326
   3196.60  113.899
   3238.44  118.661
   3280.83  123.621
   3323.77  128.787
   3367.28  134.167
   3411.35  139.771
   3456.01  145.607
   3501.24  151.684
   3547.07  158.013
   3593.50  164.604
   3640.54  171.466
   3688.19  178.611
   3736.47  186.052
   3785.38  193.798
   3834.93  201.864
   3885.13  210.260
   3935.98  219.001
   3987.50  228.100
   4039.69  237.575
   4092.57  247.438
   4146.14  257.803
   4200.41  268.619
   4255.39  279.882
   4311.09  291.608
   4367.52  303.816
   4424.69  316.527
   4482.61  329.758
   4541.29  343.531
   4600.73  357.866
   4660.95  372.786
   4721.96  388.311
   4783.77  404.467
   4846.39  421.278
   4909.82  438.768
   4974.09  456.963
   5039.20  475.893
   5105.16  495.582
   5171.98  516.058
   5239.68  537.409
   5308.27  559.753
   5377.75  582.989
   5448.14  607.153
   5519.45  632.276
   5591.70  658.391
   5664.89  685.534
   5739.04  713.745
   5814.17  743.053
   5890.27  773.503
   5967.37  805.130
   6045.48  837.982
   6124.61  872.094
   6204.78  907.506
   6286.00  944.261
   6368.28  982.534
   6451.64  1022.39
   6536.09  1063.73
   6621.64  1106.61
   6708.31  1151.06
   6796.12  1197.15
   6885.08  1244.91
   6975.20  1294.38
   7066.50  1345.62
   7159.00  1398.67
   7252.71  1453.57
   7347.64  1510.36
   7443.82  1569.09
   7541.26  1629.81
   7639.97  1692.55
   7739.97  1757.36
   7841.28  1824.28
   7943.92  1893.33
   8047.90  1964.60
   8153.25  2038.18
   8259.97  2114.01
   8368.09  2192.44
   8477.62  2273.52
   8588.59  2356.98
   8701.01  2442.83
   8814.90  2531.09
   8930.29  2621.77
   9047.18  2714.89
   9165.60  2810.42
   9285.58  2908.39
   9407.12  3008.77
   9530.25  3111.55
   9655.00  3216.70
   9781.38  3324.21
   9909.41  3434.02
   10039.1  3546.39
   10170.5  3661.71
   10303.7  3779.33
   10438.5  3899.20
   10575.2  4021.25
   10713.6  4145.41
   10853.8  4271.61
   10995.9  4399.78
   11139.8  4529.81
   11285.6  4661.57
   11433.4  4795.02
   11583.0  4929.98
   11734.6  5066.36
   11888.2  5204.02
   12043.8  5342.85
   12201.5  5482.63
   12361.2  5623.35
   12523.0  5765.60
   12686.9  5908.80
   12853.0  6052.42
   13021.2  6196.26
   13191.7  6340.13
   13364.3  6483.89
   13539.3  6627.38
   13716.5  6770.37
   13896.0  6912.69
   14077.9  7054.21
   14262.2  7194.70
   14448.9  7334.02
   14638.0  7471.99
   14829.6  7608.45
   15023.7  7744.00
   15220.4  7883.80
   15419.6  8022.10
   15621.5  8158.77
   15825.9  8293.70
   16033.1  8426.75
   16243.0  8557.79
   16455.6  8687.36
   16671.0  8814.96
   16889.2  8940.21
   17110.2  9062.95
   17334.2  9183.16
   17561.1  9300.74
   17791.0  9415.59
   18023.8  9527.66
   18259.8  9636.90
   18498.8  9743.24
   18740.9  9846.63
   18986.2  9947.07
   19234.8  10044.5
   19486.5  10138.9
   19741.6  10230.4
   20000.0  10318.7
