 Be Density=6.048, Angle=90.deg
 Photon Energy (eV), Atten Length (microns)
   30.0000  3.579371E-02
   30.3506  3.730182E-02
   30.7053  3.887324E-02
   31.0641  4.051098E-02
   31.4271  4.221774E-02
   31.7944  4.399644E-02
   32.1659  4.584997E-02
   32.5418  4.778168E-02
   32.9221  4.979482E-02
   33.3068  5.189279E-02
   33.6960  5.407913E-02
   34.0898  5.611716E-02
   34.4882  5.799203E-02
   34.8912  5.965392E-02
   35.2990  6.136328E-02
   35.7115  6.312165E-02
   36.1288  6.493056E-02
   36.5510  6.679130E-02
   36.9781  6.870522E-02
   37.4103  7.067405E-02
   37.8474  7.269953E-02
   38.2897  7.478274E-02
   38.7372  7.692569E-02
   39.1899  7.852421E-02
   39.6478  7.952176E-02
   40.1112  8.107238E-02
   40.5799  8.234540E-02
   41.0541  8.376747E-02
   41.5339  8.571865E-02
   42.0192  8.733218E-02
   42.5103  8.920532E-02
   43.0071  9.068793E-02
   43.5096  9.263117E-02
   44.0181  9.420652E-02
   44.5325  9.625242E-02
   45.0529  9.826671E-02
   45.5794  0.100518
   46.1120  0.102783
   46.6509  0.104764
   47.1961  0.106745
   47.7476  0.108701
   48.3056  0.110309
   48.8701  0.111172
   49.4412  0.113373
   50.0190  0.114680
   50.6035  0.115148
   51.1948  0.115617
   51.7931  0.116088
   52.3983  0.116933
   53.0107  0.118252
   53.6302  0.120000
   54.2569  0.122270
   54.8909  0.123781
   55.5324  0.126061
   56.1814  0.128521
   56.8379  0.131660
   57.5021  0.134406
   58.1741  0.136921
   58.8539  0.139876
   59.5417  0.142443
   60.2375  0.144523
   60.9414  0.146616
   61.6536  0.148728
   62.3741  0.150065
   63.1030  0.152164
   63.8404  0.153470
   64.5864  0.155267
   65.3412  0.156584
   66.1048  0.158705
   66.8773  0.160264
   67.6588  0.162141
   68.4495  0.164196
   69.2494  0.166395
   70.0586  0.169647
   70.8773  0.171947
   71.7056  0.173930
   72.5436  0.175936
   73.3913  0.178054
   74.2490  0.179970
   75.1166  0.181800
   75.9944  0.183295
   76.8825  0.184621
   77.7810  0.185903
   78.6899  0.187078
   79.6095  0.188357
   80.5398  0.189406
   81.4810  0.190516
   82.4332  0.191914
   83.3965  0.193412
   84.3711  0.195441
   85.3571  0.197588
   86.3545  0.199761
   87.3637  0.202233
   88.3846  0.204792
   89.4175  0.207419
   90.4624  0.210102
   91.5196  0.212828
   92.5891  0.215590
   93.6711  0.218350
   94.7657  0.220957
   95.8732  0.223584
   96.9935  0.226240
   98.1270  0.228310
   99.2737  0.231293
   100.434  0.234174
   101.608  0.237061
   102.795  0.239699
   103.996  0.242052
   105.211  0.245856
   106.441  0.248549
   107.685  0.247748
   108.943  0.242274
   110.216  0.226726
   111.504  0.190367
   112.807  1.784122E-02
   114.126  1.184656E-02
   115.459  1.303878E-02
   116.809  1.194412E-02
   118.174  8.770137E-03
   119.555  8.905239E-03
   120.952  8.605556E-03
   122.365  7.900389E-03
   123.795  7.744144E-03
   125.242  6.857266E-03
   126.705  6.855194E-03
   128.186  8.652123E-03
   129.684  1.130034E-02
   131.200  1.442103E-02
   132.733  1.591555E-02
   134.284  1.616354E-02
   135.853  1.635110E-02
   137.441  1.677504E-02
   139.047  1.728735E-02
   140.672  1.739684E-02
   142.316  1.731637E-02
   143.979  1.748790E-02
   145.661  1.778048E-02
   147.364  1.789444E-02
   149.086  1.786396E-02
   150.828  1.791530E-02
   152.590  1.800728E-02
   154.374  1.796842E-02
   156.178  1.775228E-02
   158.003  1.755512E-02
   159.849  1.771025E-02
   161.717  1.814168E-02
   163.607  1.917830E-02
   165.519  2.055990E-02
   167.453  2.196093E-02
   169.410  2.328929E-02
   171.390  2.407897E-02
   173.393  2.498492E-02
   175.419  2.582907E-02
   177.469  2.705843E-02
   179.543  2.834189E-02
   181.641  2.892325E-02
   183.764  2.961758E-02
   185.911  3.020812E-02
   188.084  3.088385E-02
   190.282  3.116947E-02
   192.505  3.175082E-02
   194.755  3.260579E-02
   197.031  3.323793E-02
   199.333  3.377238E-02
   201.663  3.443861E-02
   204.019  3.491025E-02
   206.403  3.565657E-02
   208.816  3.664976E-02
   211.256  3.760001E-02
   213.724  3.874531E-02
   216.222  3.972239E-02
   218.749  4.089528E-02
   221.305  4.185300E-02
   223.891  4.312673E-02
   226.508  4.412760E-02
   229.155  4.599100E-02
   231.833  4.792387E-02
   234.542  4.987486E-02
   237.283  5.138277E-02
   240.056  5.277690E-02
   242.861  5.431163E-02
   245.699  5.589115E-02
   248.570  5.666643E-02
   251.475  5.777822E-02
   254.414  5.957992E-02
   257.387  6.144774E-02
   260.395  6.337394E-02
   263.438  6.536108E-02
   266.516  6.741043E-02
   269.631  6.952398E-02
   272.782  7.170379E-02
   275.969  7.395221E-02
   279.194  7.627086E-02
   282.457  7.866207E-02
   285.758  8.112827E-02
   289.097  8.367166E-02
   292.476  8.629514E-02
   295.894  8.900105E-02
   299.351  9.179135E-02
   302.850  9.466961E-02
   306.389  9.763782E-02
   309.969  0.100699
   313.592  0.103856
   317.256  0.107073
   320.964  0.110368
   324.714  0.113764
   328.509  0.117264
   332.348  0.120872
   336.232  0.124591
   340.161  0.128425
   344.136  0.132377
   348.158  0.136450
   352.226  0.140648
   356.342  0.144976
   360.507  0.149437
   364.720  0.154035
   368.982  0.158774
   373.294  0.163660
   377.656  0.168696
   382.069  0.173886
   386.534  0.179237
   391.051  0.184921
   395.621  0.190862
   400.244  0.196995
   404.922  0.203510
   409.654  0.210255
   414.441  0.217224
   419.284  0.224423
   424.184  0.231862
   429.141  0.239547
   434.156  0.247486
   439.229  0.255688
   444.362  0.264163
   449.555  0.272918
   454.808  0.281964
   460.123  0.291309
   465.500  0.300964
   470.940  0.310939
   476.444  0.321245
   482.011  0.331892
   487.644  0.342892
   493.343  0.354258
   499.108  0.365999
   504.941  0.378130
   510.841  0.390662
   516.811  0.403610
   522.851  0.416987
   528.961  0.430808
   535.142  0.445086
   541.396  0.459839
   547.723  0.475080
   554.123  0.490825
   560.599  0.507092
   567.150  0.524292
   573.778  0.542106
   580.483  0.560525
   587.266  0.579569
   594.129  0.599261
   601.072  0.619622
   608.096  0.640676
   615.203  0.662443
   622.392  0.684951
   629.665  0.708223
   637.024  0.732285
   644.468  0.758483
   651.999  0.785804
   659.618  0.814108
   667.327  0.843431
   675.125  0.872586
   683.015  0.901687
   690.996  0.930618
   699.071  0.960482
   707.241  0.992550
   715.506  1.02657
   723.867  1.06176
   732.326  1.09872
   740.884  1.13708
   749.542  1.17678
   758.301  1.21787
   767.163  1.26040
   776.128  1.30440
   785.198  1.34995
   794.374  1.39708
   803.657  1.44586
   813.048  1.49634
   822.550  1.54858
   832.162  1.60266
   841.887  1.65862
   851.725  1.71653
   861.678  1.77646
   871.748  1.83848
   881.935  1.90257
   892.242  1.96861
   902.668  2.03694
   913.217  2.10765
   923.889  2.18081
   934.686  2.25650
   945.608  2.33568
   956.659  2.41795
   967.838  2.50312
   979.148  2.59127
   990.591  2.68254
   1002.17  2.77704
   1013.88  2.87483
   1025.73  2.97609
   1037.71  3.08091
   1049.84  3.18943
   1062.11  3.30180
   1074.52  3.41810
   1087.08  3.53848
   1099.78  3.66311
   1112.63  3.79210
   1125.64  3.92565
   1138.79  4.06393
   1152.10  4.20709
   1165.56  4.35528
   1179.18  4.50866
   1192.96  4.66741
   1206.90  4.83180
   1221.01  5.00200
   1235.28  5.17817
   1249.71  5.36054
   1264.31  5.54934
   1279.09  5.74479
   1294.04  5.94710
   1309.16  6.15656
   1324.46  6.37339
   1339.94  6.59785
   1355.59  6.83023
   1371.44  7.07094
   1387.46  7.32021
   1403.68  7.57829
   1420.08  7.84542
   1436.68  8.12193
   1453.46  8.40822
   1470.45  8.70465
   1487.63  9.01142
   1505.02  9.32903
   1522.61  9.66007
   1540.40  10.0080
   1558.40  10.3684
   1576.61  10.7417
   1595.04  11.1285
   1613.68  11.5292
   1632.53  11.9443
   1651.61  12.3744
   1670.91  12.8199
   1690.44  13.2816
   1710.19  13.7598
   1730.18  14.2552
   1750.40  14.7684
   1770.85  15.3001
   1791.55  15.8510
   1812.48  16.4216
   1833.66  17.0127
   1855.09  17.6251
   1876.77  18.2595
   1898.70  18.9167
   1920.89  19.5976
   1943.34  20.3029
   1966.05  21.0336
   1989.02  21.7906
   2012.27  22.5749
   2035.78  23.3949
   2059.57  24.2543
   2083.64  25.1453
   2107.99  26.0689
   2132.62  27.0264
   2157.55  28.0191
   2182.76  29.0481
   2208.27  30.1149
   2234.07  31.2207
   2260.18  32.3670
   2286.59  33.5557
   2313.31  34.7877
   2340.35  36.0646
   2367.70  37.3886
   2395.37  38.7611
   2423.36  40.1836
   2451.68  41.6583
   2480.33  43.1871
   2509.31  44.7718
   2538.64  46.4144
   2568.30  48.1170
   2598.32  49.8819
   2628.68  51.7115
   2659.40  53.6081
   2690.48  55.5736
   2721.92  57.6112
   2753.73  59.7233
   2785.91  61.9124
   2818.46  64.1813
   2851.40  66.5330
   2884.72  68.9706
   2918.43  71.4967
   2952.54  74.1149
   2987.04  76.8286
   3021.95  79.6419
   3057.26  82.6093
   3092.99  85.6911
   3129.14  88.8870
   3165.70  92.2019
   3202.70  95.6393
   3240.12  99.2037
   3277.99  102.900
   3316.29  106.733
   3355.05  110.708
   3394.26  114.831
   3433.92  119.106
   3474.05  123.538
   3514.65  128.134
   3555.72  132.900
   3597.27  137.841
   3639.31  142.963
   3681.84  148.274
   3724.87  153.781
   3768.40  159.490
   3812.43  165.408
   3856.99  171.542
   3902.06  177.902
   3947.66  184.494
   3993.79  191.327
   4040.46  198.411
   4087.68  205.755
   4135.45  213.427
   4183.77  221.411
   4232.67  229.688
   4282.13  238.270
   4332.17  247.166
   4382.80  256.388
   4434.01  265.948
   4485.83  275.858
   4538.25  286.128
   4591.29  296.772
   4644.94  307.805
   4699.22  319.236
   4754.14  331.081
   4809.69  343.355
   4865.90  356.071
   4922.76  369.246
   4980.29  382.894
   5038.49  397.032
   5097.37  411.678
   5156.94  426.845
   5217.20  442.550
   5278.17  458.957
   5339.85  475.955
   5402.25  493.556
   5465.38  511.786
   5529.25  530.657
   5593.87  550.192
   5659.24  570.414
   5725.37  591.345
   5792.28  613.003
   5859.97  635.413
   5928.45  658.600
   5997.73  682.581
   6067.82  707.393
   6138.73  733.051
   6210.46  759.577
   6283.04  787.002
   6356.46  815.428
   6430.75  844.929
   6505.90  875.417
   6581.92  906.917
   6658.84  939.457
   6736.66  973.061
   6815.38  1007.76
   6895.02  1043.58
   6975.60  1080.55
   7057.12  1118.69
   7139.59  1158.03
   7223.02  1198.61
   7307.43  1240.43
   7392.82  1283.53
   7479.22  1327.95
   7566.62  1373.69
   7655.04  1420.78
   7744.50  1469.27
   7835.00  1519.15
   7926.56  1570.46
   8019.19  1623.22
   8112.91  1677.54
   8207.71  1733.35
   8303.63  1790.66
   8400.67  1849.95
   8498.84  1910.84
   8598.15  1973.32
   8698.63  2037.39
   8800.29  2103.07
   8903.13  2170.37
   9007.17  2239.28
   9112.43  2309.81
   9218.91  2381.95
   9326.65  2455.71
   9435.64  2531.08
   9545.90  2608.04
   9657.46  2686.58
   9770.32  2766.68
   9884.49  2848.33
   10000.0  2931.50
