 Be Density=6.048, Angle=90.deg
 Photon Energy (eV), Atten Length (microns)
   30.0000  3.579371E-02
   30.3927  3.748592E-02
   30.7905  3.925794E-02
   31.1935  4.111383E-02
   31.6019  4.305752E-02
   32.0155  4.509306E-02
   32.4346  4.722480E-02
   32.8591  4.945739E-02
   33.2892  5.179558E-02
   33.7250  5.424426E-02
   34.1664  5.648896E-02
   34.6136  5.850638E-02
   35.0667  6.038620E-02
   35.5257  6.232621E-02
   35.9907  6.432882E-02
   36.4618  6.639578E-02
   36.9391  6.852905E-02
   37.4226  7.073087E-02
   37.9125  7.300369E-02
   38.4087  7.534915E-02
   38.9115  7.774638E-02
   39.4208  7.890625E-02
   39.9368  8.047650E-02
   40.4596  8.204483E-02
   40.9891  8.359450E-02
   41.5257  8.568304E-02
   42.0692  8.749528E-02
   42.6199  8.951018E-02
   43.1778  9.142594E-02
   43.7429  9.342686E-02
   44.3155  9.529891E-02
   44.8956  9.752503E-02
   45.4832  0.100093
   46.0786  0.102661
   46.6817  0.104878
   47.2928  0.107096
   47.9118  0.109191
   48.5390  0.110666
   49.1743  0.112153
   49.8180  0.114378
   50.4701  0.115041
   51.1307  0.115566
   51.8000  0.116094
   52.4780  0.117103
   53.1649  0.118585
   53.8608  0.120917
   54.5658  0.123099
   55.2801  0.125209
   56.0037  0.127678
   56.7367  0.131173
   57.4794  0.134341
   58.2318  0.137211
   58.9940  0.140440
   59.7662  0.143113
   60.5485  0.145438
   61.3411  0.148044
   62.1440  0.149639
   62.9574  0.151739
   63.7815  0.153411
   64.6164  0.155319
   65.4622  0.156884
   66.3190  0.159137
   67.1871  0.160984
   68.0666  0.163145
   68.9575  0.165592
   69.8601  0.168789
   70.7746  0.171701
   71.7010  0.173919
   72.6395  0.176268
   73.5903  0.178392
   74.5536  0.180700
   75.5294  0.182636
   76.5181  0.183993
   77.5197  0.185410
   78.5344  0.186769
   79.5623  0.188304
   80.6038  0.189478
   81.6588  0.190706
   82.7277  0.192372
   83.8106  0.194210
   84.9076  0.196619
   86.0190  0.199015
   87.1450  0.201697
   88.2857  0.204542
   89.4413  0.207480
   90.6120  0.210487
   91.7981  0.213546
   92.9997  0.216652
   94.2170  0.219650
   95.4502  0.222582
   96.6996  0.225543
   97.9654  0.228105
   99.2477  0.231212
   100.547  0.234299
   101.863  0.237772
   103.196  0.240565
   104.547  0.243736
   105.916  0.247584
   107.302  0.248183
   108.706  0.243372
   110.129  0.228507
   111.571  0.181667
   113.031  1.264251E-02
   114.511  1.304159E-02
   116.010  1.250330E-02
   117.528  1.022330E-02
   119.067  8.933685E-03
   120.625  8.539439E-03
   122.204  7.875668E-03
   123.804  7.736871E-03
   125.424  6.735037E-03
   127.066  7.087843E-03
   128.729  9.503034E-03
   130.414  1.270658E-02
   132.121  1.551585E-02
   133.851  1.614127E-02
   135.603  1.633814E-02
   137.378  1.675263E-02
   139.176  1.731399E-02
   140.998  1.735457E-02
   142.843  1.734566E-02
   144.713  1.760867E-02
   146.607  1.791460E-02
   148.526  1.783830E-02
   150.470  1.786066E-02
   152.440  1.801812E-02
   154.435  1.796491E-02
   156.457  1.771979E-02
   158.505  1.760150E-02
   160.579  1.782705E-02
   162.681  1.857380E-02
   164.811  2.004767E-02
   166.968  2.161578E-02
   169.154  2.312701E-02
   171.368  2.407286E-02
   173.611  2.510477E-02
   175.883  2.610466E-02
   178.185  2.767674E-02
   180.518  2.869945E-02
   182.881  2.938025E-02
   185.275  3.003958E-02
   187.700  3.073035E-02
   190.157  3.113395E-02
   192.646  3.178369E-02
   195.167  3.268407E-02
   197.722  3.345754E-02
   200.310  3.409804E-02
   202.932  3.468919E-02
   205.588  3.537816E-02
   208.279  3.642333E-02
   211.006  3.748106E-02
   213.768  3.876324E-02
   216.566  3.987053E-02
   219.400  4.119313E-02
   222.272  4.231228E-02
   225.182  4.345544E-02
   228.129  4.515797E-02
   231.115  4.715984E-02
   234.140  4.958096E-02
   237.205  5.131961E-02
   240.310  5.298808E-02
   243.456  5.457237E-02
   246.642  5.614221E-02
   249.871  5.690541E-02
   253.141  5.879141E-02
   256.455  6.085849E-02
   259.812  6.299769E-02
   263.213  6.521283E-02
   266.658  6.750574E-02
   270.148  6.987919E-02
   273.685  7.233620E-02
   277.267  7.487971E-02
   280.896  7.751237E-02
   284.573  8.023752E-02
   288.298  8.305836E-02
   292.072  8.597867E-02
   295.895  8.900195E-02
   299.768  9.213099E-02
   303.692  9.537066E-02
   307.667  9.872357E-02
   311.694  0.102194
   315.774  0.105773
   319.907  0.109423
   324.095  0.113199
   328.337  0.117104
   332.635  0.121144
   336.989  0.125324
   341.400  0.129648
   345.868  0.134122
   350.396  0.138749
   354.982  0.143536
   359.629  0.148489
   364.336  0.153613
   369.105  0.158913
   373.936  0.164396
   378.831  0.170068
   383.790  0.175936
   388.813  0.182054
   393.903  0.188614
   399.059  0.195411
   404.282  0.202610
   409.574  0.210141
   414.935  0.217952
   420.367  0.226053
   425.869  0.234457
   431.443  0.243171
   437.091  0.252210
   442.812  0.261585
   448.608  0.271309
   454.480  0.281393
   460.429  0.291853
   466.456  0.302702
   472.562  0.313953
   478.747  0.325624
   485.014  0.337727
   491.363  0.350281
   497.794  0.363302
   504.310  0.376806
   510.911  0.390812
   517.599  0.405339
   524.374  0.420406
   531.238  0.436032
   538.191  0.452241
   545.236  0.469052
   552.373  0.486486
   559.603  0.504568
   566.928  0.523702
   574.349  0.543660
   581.867  0.564377
   589.483  0.585883
   597.199  0.608209
   605.016  0.631387
   612.936  0.655447
   620.959  0.680424
   629.087  0.706353
   637.321  0.733270
   645.663  0.762777
   654.115  0.793596
   662.677  0.825659
   671.351  0.858602
   680.139  0.891391
   689.041  0.923478
   698.061  0.956710
   707.198  0.992375
   716.455  1.03053
   725.833  1.07019
   735.334  1.11210
   744.959  1.15565
   754.710  1.20091
   764.589  1.24794
   774.597  1.29681
   784.736  1.34760
   795.008  1.40038
   805.414  1.45522
   815.956  1.51220
   826.637  1.57142
   837.457  1.63297
   848.419  1.69692
   859.524  1.76337
   870.775  1.83243
   882.173  1.90408
   893.720  1.97821
   905.419  2.05522
   917.270  2.13524
   929.277  2.21837
   941.441  2.30514
   953.764  2.39621
   966.248  2.49088
   978.896  2.58928
   991.709  2.69157
   1004.69  2.79791
   1017.84  2.90844
   1031.16  3.02334
   1044.66  3.14278
   1058.34  3.26696
   1072.19  3.39605
   1086.22  3.53021
   1100.44  3.66966
   1114.85  3.81460
   1129.44  3.96530
   1144.22  4.12197
   1159.20  4.28483
   1174.37  4.45411
   1189.74  4.63002
   1205.32  4.81292
   1221.09  5.00307
   1237.08  5.20072
   1253.27  5.40616
   1269.68  5.61974
   1286.29  5.84173
   1303.13  6.07250
   1320.19  6.31238
   1337.47  6.56174
   1354.98  6.82096
   1372.71  7.09058
   1390.68  7.37097
   1408.88  7.66243
   1427.33  7.96537
   1446.01  8.28025
   1464.94  8.60768
   1484.11  8.94797
   1503.54  9.30171
   1523.22  9.67192
   1543.16  10.0627
   1563.36  10.4691
   1583.82  10.8920
   1604.55  11.3319
   1625.55  11.7895
   1646.83  12.2657
   1668.39  12.7611
   1690.23  13.2765
   1712.35  13.8127
   1734.76  14.3705
   1757.47  14.9509
   1780.48  15.5547
   1803.78  16.1828
   1827.39  16.8362
   1851.31  17.5160
   1875.54  18.2232
   1900.09  18.9590
   1924.97  19.7244
   1950.16  20.5207
   1975.69  21.3491
   2001.55  22.2109
   2027.75  23.1095
   2054.29  24.0617
   2081.18  25.0532
   2108.42  26.0855
   2136.02  27.1602
   2163.98  28.2793
   2192.31  29.4443
   2221.00  30.6572
   2250.07  31.9199
   2279.53  33.2347
   2309.36  34.6037
   2339.59  36.0285
   2370.22  37.5122
   2401.24  39.0568
   2432.67  40.6647
   2464.51  42.3387
   2496.77  44.0815
   2529.46  45.8958
   2562.56  47.7844
   2596.11  49.7504
   2630.09  51.7974
   2664.52  53.9283
   2699.39  56.1463
   2734.73  58.4555
   2770.52  60.8592
   2806.79  63.3613
   2843.53  65.9657
   2880.75  68.6767
   2918.46  71.4984
   2956.66  74.4354
   2995.36  77.4925
   3034.57  80.6908
   3074.29  84.0684
   3114.53  87.5857
   3155.29  91.2500
   3196.60  95.0664
   3238.44  99.0414
   3280.83  103.181
   3323.77  107.492
   3367.28  111.984
   3411.35  116.661
   3456.01  121.531
   3501.24  126.604
   3547.07  131.887
   3593.50  137.387
   3640.54  143.115
   3688.19  149.079
   3736.47  155.289
   3785.38  161.755
   3834.93  168.487
   3885.13  175.495
   3935.98  182.790
   3987.50  190.385
   4039.69  198.293
   4092.57  206.526
   4146.14  215.177
   4200.41  224.205
   4255.39  233.605
   4311.09  243.393
   4367.52  253.582
   4424.69  264.191
   4482.61  275.235
   4541.29  286.730
   4600.73  298.695
   4660.95  311.148
   4721.96  324.107
   4783.77  337.591
   4846.39  351.622
   4909.82  366.221
   4974.09  381.407
   5039.20  397.207
   5105.16  413.641
   5171.98  430.731
   5239.68  448.552
   5308.27  467.201
   5377.75  486.595
   5448.14  506.764
   5519.45  527.734
   5591.70  549.530
   5664.89  572.185
   5739.04  595.731
   5814.17  620.194
   5890.27  645.609
   5967.37  672.007
   6045.48  699.427
   6124.61  727.898
   6204.78  757.455
   6286.00  788.133
   6368.28  820.078
   6451.64  853.340
   6536.09  887.846
   6621.64  923.636
   6708.31  960.741
   6796.12  999.206
   6885.08  1039.07
   6975.20  1080.36
   7066.50  1123.13
   7159.00  1167.41
   7252.71  1213.23
   7347.64  1260.63
   7443.82  1309.65
   7541.26  1360.33
   7639.97  1412.70
   7739.97  1466.79
   7841.28  1522.65
   7943.92  1580.28
   8047.90  1639.77
   8153.25  1701.18
   8259.97  1764.47
   8368.09  1829.94
   8477.62  1897.61
   8588.59  1967.27
   8701.01  2038.92
   8814.90  2112.59
   8930.29  2188.28
   9047.18  2266.00
   9165.60  2345.74
   9285.58  2427.50
   9407.12  2511.29
   9530.25  2597.07
   9655.00  2684.84
   9781.38  2774.57
   9909.41  2866.23
   10039.1  2960.02
   10170.5  3056.27
   10303.7  3154.44
   10438.5  3254.49
   10575.2  3356.36
   10713.6  3459.99
   10853.8  3565.32
   10995.9  3672.30
   11139.8  3780.84
   11285.6  3890.81
   11433.4  4002.19
   11583.0  4114.84
   11734.6  4228.67
   11888.2  4343.57
   12043.8  4459.44
   12201.5  4576.11
   12361.2  4693.57
   12523.0  4812.29
   12686.9  4931.82
   12853.0  5051.69
   13021.2  5171.75
   13191.7  5291.83
   13364.3  5411.82
   13539.3  5531.58
   13716.5  5650.93
   13896.0  5769.72
   14077.9  5887.84
   14262.2  6005.10
   14448.9  6121.38
   14638.0  6236.55
   14829.6  6350.44
   15023.7  6463.58
   15220.4  6580.26
   15419.6  6695.69
   15621.5  6809.76
   15825.9  6922.39
   16033.1  7033.44
   16243.0  7142.81
   16455.6  7250.96
   16671.0  7357.46
   16889.2  7462.01
   17110.2  7564.44
   17334.2  7664.78
   17561.1  7762.92
   17791.0  7858.78
   18023.8  7952.32
   18259.8  8043.50
   18498.8  8132.25
   18740.9  8218.55
   18986.2  8302.38
   19234.8  8383.72
   19486.5  8462.54
   19741.6  8538.82
   20000.0  8612.58
