 Be Density=0.248, Angle=90.deg
 Photon Energy (eV), Atten Length (microns)
   30.0000  0.872905
   30.3927  0.914173
   30.7905  0.957387
   31.1935  1.00265
   31.6019  1.05005
   32.0155  1.09969
   32.4346  1.15168
   32.8591  1.20612
   33.2892  1.26314
   33.7250  1.32286
   34.1664  1.37760
   34.6136  1.42680
   35.0667  1.47264
   35.5257  1.51996
   35.9907  1.56879
   36.4618  1.61920
   36.9391  1.67122
   37.4226  1.72492
   37.9125  1.78035
   38.4087  1.83755
   38.9115  1.89601
   39.4208  1.92429
   39.9368  1.96259
   40.4596  2.00084
   40.9891  2.03863
   41.5257  2.08956
   42.0692  2.13376
   42.6199  2.18289
   43.1778  2.22961
   43.7429  2.27841
   44.3155  2.32406
   44.8956  2.37835
   45.4832  2.44098
   46.0786  2.50361
   46.6817  2.55767
   47.2928  2.61177
   47.9118  2.66285
   48.5390  2.69882
   49.1743  2.73510
   49.8180  2.78935
   50.4701  2.80552
   51.1307  2.81832
   51.8000  2.83118
   52.4780  2.85581
   53.1649  2.89193
   53.8608  2.94881
   54.5658  3.00204
   55.2801  3.05348
   56.0037  3.11369
   56.7367  3.19893
   57.4794  3.27618
   58.2318  3.34617
   58.9940  3.42492
   59.7662  3.49011
   60.5485  3.54681
   61.3411  3.61035
   62.1440  3.64925
   62.9574  3.70047
   63.7815  3.74126
   64.6164  3.78778
   65.4622  3.82594
   66.3190  3.88090
   67.1871  3.92594
   68.0666  3.97863
   68.9575  4.03831
   69.8601  4.11627
   70.7746  4.18728
   71.7010  4.24137
   72.6395  4.29867
   73.5903  4.35045
   74.5536  4.40674
   75.5294  4.45396
   76.5181  4.48705
   77.5197  4.52160
   78.5344  4.55476
   79.5623  4.59218
   80.6038  4.62083
   81.6588  4.65076
   82.7277  4.69141
   83.8106  4.73623
   84.9076  4.79497
   86.0190  4.85339
   87.1450  4.91881
   88.2857  4.98818
   89.4413  5.05983
   90.6120  5.13317
   91.7981  5.20778
   92.9997  5.28351
   94.2170  5.35663
   95.4502  5.42813
   96.6996  5.50033
   97.9654  5.56282
   99.2477  5.63859
   100.547  5.71387
   101.863  5.79858
   103.196  5.86667
   104.547  5.94401
   105.916  6.03784
   107.302  6.05246
   108.706  5.93513
   110.129  5.57262
   111.571  4.43033
   113.031  0.308314
   114.511  0.318047
   116.010  0.304919
   117.528  0.249317
   119.067  0.217867
   120.625  0.208252
   122.204  0.192065
   123.804  0.188680
   125.424  0.164248
   127.066  0.172852
   128.729  0.231751
   130.414  0.309877
   132.121  0.378386
   133.851  0.393639
   135.603  0.398440
   137.378  0.408548
   139.176  0.422238
   140.998  0.423227
   142.843  0.423010
   144.713  0.429424
   146.607  0.436885
   148.526  0.435024
   150.470  0.435570
   152.440  0.439410
   154.435  0.438112
   156.457  0.432134
   158.505  0.429249
   160.579  0.434750
   162.681  0.452961
   164.811  0.488904
   166.968  0.527146
   169.154  0.564001
   171.368  0.587067
   173.611  0.612232
   175.883  0.636617
   178.185  0.674955
   180.518  0.699896
   182.881  0.716499
   185.275  0.732578
   187.700  0.749424
   190.157  0.759266
   192.646  0.775112
   195.167  0.797070
   197.722  0.815932
   200.310  0.831552
   202.932  0.845968
   205.588  0.862770
   208.279  0.888259
   211.006  0.914054
   213.768  0.945323
   216.566  0.972326
   219.400  1.00458
   222.272  1.03187
   225.182  1.05975
   228.129  1.10127
   231.115  1.15009
   234.140  1.20914
   237.205  1.25154
   240.310  1.29223
   243.456  1.33086
   246.642  1.36915
   249.871  1.38776
   253.141  1.43375
   256.455  1.48416
   259.812  1.53633
   263.213  1.59035
   266.658  1.64627
   270.148  1.70415
   273.685  1.76407
   277.267  1.82610
   280.896  1.89030
   284.573  1.95676
   288.298  2.02555
   292.072  2.09677
   295.895  2.17050
   299.768  2.24681
   303.692  2.32581
   307.667  2.40758
   311.694  2.49223
   315.774  2.57951
   319.907  2.66850
   324.095  2.76059
   328.337  2.85583
   332.635  2.95436
   336.989  3.05629
   341.400  3.16174
   345.868  3.27084
   350.396  3.38369
   354.982  3.50044
   359.629  3.62122
   364.336  3.74617
   369.105  3.87541
   373.936  4.00914
   378.831  4.14747
   383.790  4.29058
   388.813  4.43977
   393.903  4.59975
   399.059  4.76550
   404.282  4.94106
   409.574  5.12472
   414.935  5.31521
   420.367  5.51278
   425.869  5.71771
   431.443  5.93024
   437.091  6.15067
   442.812  6.37930
   448.608  6.61643
   454.480  6.86236
   460.429  7.11744
   466.456  7.38201
   472.562  7.65641
   478.747  7.94102
   485.014  8.23617
   491.363  8.54234
   497.794  8.85987
   504.310  9.18919
   510.911  9.53078
   517.599  9.88504
   524.374  10.2525
   531.238  10.6336
   538.191  11.0288
   545.236  11.4388
   552.373  11.8640
   559.603  12.3050
   566.928  12.7716
   574.349  13.2583
   581.867  13.7635
   589.483  14.2880
   597.199  14.8325
   605.016  15.3977
   612.936  15.9845
   620.959  16.5936
   629.087  17.2259
   637.321  17.8823
   645.663  18.6019
   654.115  19.3535
   662.677  20.1354
   671.351  20.9388
   680.139  21.7384
   689.041  22.5209
   698.061  23.3314
   707.198  24.2011
   716.455  25.1316
   725.833  26.0989
   735.334  27.1209
   744.959  28.1830
   754.710  29.2867
   764.589  30.4337
   774.597  31.6255
   784.736  32.8641
   795.008  34.1512
   805.414  35.4885
   815.956  36.8782
   826.637  38.3224
   837.457  39.8235
   848.419  41.3829
   859.524  43.0035
   870.775  44.6875
   882.173  46.4349
   893.720  48.2428
   905.419  50.1208
   917.270  52.0723
   929.277  54.0996
   941.441  56.2156
   953.764  58.4366
   966.248  60.7454
   978.896  63.1449
   991.709  65.6397
   1004.69  68.2330
   1017.84  70.9283
   1031.16  73.7304
   1044.66  76.6432
   1058.34  79.6717
   1072.19  82.8197
   1086.22  86.0914
   1100.44  89.4924
   1114.85  93.0270
   1129.44  96.7021
   1144.22  100.523
   1159.20  104.495
   1174.37  108.623
   1189.74  112.913
   1205.32  117.373
   1221.09  122.010
   1237.08  126.830
   1253.27  131.841
   1269.68  137.049
   1286.29  142.463
   1303.13  148.091
   1320.19  153.941
   1337.47  160.022
   1354.98  166.343
   1372.71  172.919
   1390.68  179.757
   1408.88  186.864
   1427.33  194.252
   1446.01  201.931
   1464.94  209.916
   1484.11  218.215
   1503.54  226.842
   1523.22  235.870
   1543.16  245.399
   1563.36  255.311
   1583.82  265.623
   1604.55  276.352
   1625.55  287.513
   1646.83  299.124
   1668.39  311.205
   1690.23  323.776
   1712.35  336.853
   1734.76  350.456
   1757.47  364.609
   1780.48  379.333
   1803.78  394.651
   1827.39  410.586
   1851.31  427.164
   1875.54  444.411
   1900.09  462.355
   1924.97  481.021
   1950.16  500.440
   1975.69  520.642
   2001.55  541.661
   2027.75  563.572
   2054.29  586.794
   2081.18  610.976
   2108.42  636.150
   2136.02  662.359
   2163.98  689.650
   2192.31  718.060
   2221.00  747.640
   2250.07  778.434
   2279.53  810.499
   2309.36  843.884
   2339.59  878.630
   2370.22  914.814
   2401.24  952.481
   2432.67  991.694
   2464.51  1032.52
   2496.77  1075.02
   2529.46  1119.27
   2562.56  1165.32
   2596.11  1213.27
   2630.09  1263.19
   2664.52  1315.16
   2699.39  1369.24
   2734.73  1425.56
   2770.52  1484.18
   2806.79  1545.20
   2843.53  1608.71
   2880.75  1674.83
   2918.46  1743.64
   2956.66  1815.26
   2995.36  1889.82
   3034.57  1967.81
   3074.29  2050.18
   3114.53  2135.96
   3155.29  2225.32
   3196.60  2318.39
   3238.44  2415.33
   3280.83  2516.28
   3323.77  2621.43
   3367.28  2730.95
   3411.35  2845.01
   3456.01  2963.80
   3501.24  3087.50
   3547.07  3216.33
   3593.50  3350.48
   3640.54  3490.15
   3688.19  3635.60
   3736.47  3787.05
   3785.38  3944.74
   3834.93  4108.90
   3885.13  4279.80
   3935.98  4457.72
   3987.50  4642.94
   4039.69  4835.80
   4092.57  5036.56
   4146.14  5247.54
   4200.41  5467.70
   4255.39  5696.96
   4311.09  5935.64
   4367.52  6184.13
   4424.69  6442.86
   4482.61  6712.18
   4541.29  6992.51
   4600.73  7284.31
   4660.95  7588.00
   4721.96  7904.02
   4783.77  8232.86
   4846.39  8575.04
   4909.82  8931.06
   4974.09  9301.41
   5039.20  9686.72
   5105.16  10087.5
   5171.98  10504.3
   5239.68  10938.9
   5308.27  11393.7
   5377.75  11866.6
   5448.14  12358.5
   5519.45  12869.9
   5591.70  13401.4
   5664.89  13953.9
   5739.04  14528.2
   5814.17  15124.7
   5890.27  15744.5
   5967.37  16388.3
   6045.48  17057.0
   6124.61  17751.3
   6204.78  18472.1
   6286.00  19220.3
   6368.28  19999.3
   6451.64  20810.5
   6536.09  21652.0
   6621.64  22524.8
   6708.31  23429.7
   6796.12  24367.7
   6885.08  25339.9
   6975.20  26346.9
   7066.50  27389.8
   7159.00  28469.6
   7252.71  29587.1
   7347.64  30743.1
   7443.82  31938.6
   7541.26  33174.5
   7639.97  34451.5
   7739.97  35770.8
   7841.28  37133.0
   7943.92  38538.4
   8047.90  39989.2
   8153.25  41486.8
   8259.97  43030.3
   8368.09  44626.8
   8477.62  46277.2
   8588.59  47976.0
   8701.01  49723.4
   8814.90  51519.8
   8930.29  53365.7
   9047.18  55261.1
   9165.60  57205.7
   9285.58  59199.8
   9407.12  61243.0
   9530.25  63335.0
   9655.00  65475.4
   9781.38  67663.7
   9909.41  69899.0
   10039.1  72186.3
   10170.5  74533.5
   10303.7  76927.7
   10438.5  79367.6
   10575.2  81851.8
   10713.6  84379.2
   10853.8  86947.9
   10995.9  89556.8
   11139.8  92203.6
   11285.6  94885.6
   11433.4  97601.9
   11583.0  100349.
   11734.6  103125.
   11888.2  105927.
   12043.8  108753.
   12201.5  111598.
   12361.2  114462.
   12523.0  117358.
   12686.9  120273.
   12853.0  123196.
   13021.2  126124.
   13191.7  129052.
   13364.3  131979.
   13539.3  134899.
   13716.5  137810.
   13896.0  140707.
   14077.9  143587.
   14262.2  146447.
   14448.9  149283.
   14638.0  152091.
   14829.6  154869.
   15023.7  157628.
   15220.4  160473.
   15419.6  163288.
   15621.5  166070.
   15825.9  168817.
   16033.1  171525.
   16243.0  174192.
   16455.6  176830.
   16671.0  179427.
   16889.2  181977.
   17110.2  184475.
   17334.2  186922.
   17561.1  189315.
   17791.0  191653.
   18023.8  193934.
   18259.8  196158.
   18498.8  198322.
   18740.9  200427.
   18986.2  202471.
   19234.8  204455.
   19486.5  206377.
   19741.6  208237.
   20000.0  210036.
