 Be Density=7.048, Angle=90.deg
 Photon Energy (eV), Atten Length (microns)
   30.0000  3.071515E-02
   30.3927  3.216726E-02
   30.7905  3.368785E-02
   31.1935  3.528043E-02
   31.6019  3.694833E-02
   32.0155  3.869506E-02
   32.4346  4.052434E-02
   32.8591  4.244016E-02
   33.2892  4.444661E-02
   33.7250  4.654785E-02
   34.1664  4.847407E-02
   34.6136  5.020525E-02
   35.0667  5.181834E-02
   35.5257  5.348311E-02
   35.9907  5.520157E-02
   36.4618  5.697526E-02
   36.9391  5.880586E-02
   37.4226  6.069526E-02
   37.9125  6.264561E-02
   38.4087  6.465829E-02
   38.9115  6.671539E-02
   39.4208  6.771069E-02
   39.9368  6.905815E-02
   40.4596  7.040396E-02
   40.9891  7.173374E-02
   41.5257  7.352597E-02
   42.0692  7.508108E-02
   42.6199  7.681008E-02
   43.1778  7.845405E-02
   43.7429  8.017106E-02
   44.3155  8.177750E-02
   44.8956  8.368776E-02
   45.4832  8.589146E-02
   46.0786  8.809508E-02
   46.6817  8.999739E-02
   47.2928  9.190099E-02
   47.9118  9.369857E-02
   48.5390  9.496422E-02
   49.1743  9.624065E-02
   49.8180  9.814981E-02
   50.4701  9.871857E-02
   51.1307  9.916920E-02
   51.8000  9.962166E-02
   52.4780  0.100488
   53.1649  0.101759
   53.8608  0.103761
   54.5658  0.105634
   55.2801  0.107444
   56.0037  0.109562
   56.7367  0.112562
   57.4794  0.115280
   58.2318  0.117743
   58.9940  0.120514
   59.7662  0.122808
   60.5485  0.124803
   61.3411  0.127039
   62.1440  0.128407
   62.9574  0.130209
   63.7815  0.131645
   64.6164  0.133282
   65.4622  0.134625
   66.3190  0.136558
   67.1871  0.138143
   68.0666  0.139997
   68.9575  0.142097
   69.8601  0.144840
   70.7746  0.147339
   71.7010  0.149242
   72.6395  0.151259
   73.5903  0.153081
   74.5536  0.155061
   75.5294  0.156723
   76.5181  0.157887
   77.5197  0.159103
   78.5344  0.160270
   79.5623  0.161586
   80.6038  0.162594
   81.6588  0.163648
   82.7277  0.165078
   83.8106  0.166655
   84.9076  0.168722
   86.0190  0.170778
   87.1450  0.173080
   88.2857  0.175521
   89.4413  0.178042
   90.6120  0.180622
   91.7981  0.183248
   92.9997  0.185912
   94.2170  0.188485
   95.4502  0.191001
   96.6996  0.193542
   97.9654  0.195741
   99.2477  0.198407
   100.547  0.201056
   101.863  0.204036
   103.196  0.206432
   104.547  0.209153
   105.916  0.212455
   107.302  0.212970
   108.706  0.208841
   110.129  0.196085
   111.571  0.155891
   113.031  1.084874E-02
   114.511  1.119119E-02
   116.010  1.072928E-02
   117.528  8.772773E-03
   119.067  7.666136E-03
   120.625  7.327828E-03
   122.204  6.758235E-03
   123.804  6.639130E-03
   125.424  5.779441E-03
   127.066  6.082189E-03
   128.729  8.154702E-03
   130.414  1.090372E-02
   132.121  1.331439E-02
   133.851  1.385108E-02
   135.603  1.402002E-02
   137.378  1.437569E-02
   139.176  1.485741E-02
   140.998  1.489223E-02
   142.843  1.488459E-02
   144.713  1.511028E-02
   146.607  1.537279E-02
   148.526  1.530733E-02
   150.470  1.532652E-02
   152.440  1.546163E-02
   154.435  1.541597E-02
   156.457  1.520563E-02
   158.505  1.510412E-02
   160.579  1.529767E-02
   162.681  1.593847E-02
   164.811  1.720322E-02
   166.968  1.854884E-02
   169.154  1.984565E-02
   171.368  2.065730E-02
   173.611  2.154280E-02
   175.883  2.240082E-02
   178.185  2.374985E-02
   180.518  2.462745E-02
   182.881  2.521165E-02
   185.275  2.577743E-02
   187.700  2.637020E-02
   190.157  2.671653E-02
   192.646  2.727409E-02
   195.167  2.804671E-02
   197.722  2.871044E-02
   200.310  2.926007E-02
   202.932  2.976733E-02
   205.588  3.035855E-02
   208.279  3.125543E-02
   211.006  3.216309E-02
   213.768  3.326335E-02
   216.566  3.421353E-02
   219.400  3.534847E-02
   222.272  3.630883E-02
   225.182  3.728979E-02
   228.129  3.875077E-02
   231.115  4.046860E-02
   234.140  4.254620E-02
   237.205  4.403816E-02
   240.310  4.546991E-02
   243.456  4.682941E-02
   246.642  4.817652E-02
   249.871  4.883143E-02
   253.141  5.044983E-02
   256.455  5.222363E-02
   259.812  5.405931E-02
   263.213  5.596016E-02
   266.658  5.792774E-02
   270.148  5.996443E-02
   273.685  6.207283E-02
   277.267  6.425545E-02
   280.896  6.651458E-02
   284.573  6.885307E-02
   288.298  7.127368E-02
   292.072  7.377965E-02
   295.895  7.637398E-02
   299.768  7.905906E-02
   303.692  8.183906E-02
   307.667  8.471624E-02
   311.694  8.769469E-02
   315.774  9.076580E-02
   319.907  9.389725E-02
   324.095  9.713762E-02
   328.337  0.100489
   332.635  0.103956
   336.989  0.107543
   341.400  0.111253
   345.868  0.115092
   350.396  0.119063
   354.982  0.123171
   359.629  0.127421
   364.336  0.131818
   369.105  0.136365
   373.936  0.141071
   378.831  0.145938
   383.790  0.150974
   388.813  0.156224
   393.903  0.161853
   399.059  0.167685
   404.282  0.173862
   409.574  0.180325
   414.935  0.187028
   420.367  0.193980
   425.869  0.201191
   431.443  0.208669
   437.091  0.216425
   442.812  0.224470
   448.608  0.232814
   454.480  0.241468
   460.429  0.250444
   466.456  0.259753
   472.562  0.269408
   478.747  0.279423
   485.014  0.289808
   491.363  0.300582
   497.794  0.311755
   504.310  0.323343
   510.911  0.335362
   517.599  0.347828
   524.374  0.360757
   531.238  0.374166
   538.191  0.388075
   545.236  0.402501
   552.373  0.417462
   559.603  0.432978
   566.928  0.449397
   574.349  0.466523
   581.867  0.484301
   589.483  0.502755
   597.199  0.521914
   605.016  0.541803
   612.936  0.562450
   620.959  0.583883
   629.087  0.606133
   637.321  0.629230
   645.663  0.654551
   654.115  0.680997
   662.677  0.708511
   671.351  0.736780
   680.139  0.764917
   689.041  0.792451
   698.061  0.820968
   707.198  0.851572
   716.455  0.884311
   725.833  0.918349
   735.334  0.954310
   744.959  0.991684
   754.710  1.03052
   764.589  1.07088
   774.597  1.11282
   784.736  1.15640
   795.008  1.20169
   805.414  1.24874
   815.956  1.29764
   826.637  1.34846
   837.457  1.40128
   848.419  1.45615
   859.524  1.51318
   870.775  1.57243
   882.173  1.63392
   893.720  1.69753
   905.419  1.76362
   917.270  1.83228
   929.277  1.90362
   941.441  1.97807
   953.764  2.05623
   966.248  2.13746
   978.896  2.22190
   991.709  2.30968
   1004.69  2.40093
   1017.84  2.49577
   1031.16  2.59437
   1044.66  2.69687
   1058.34  2.80343
   1072.19  2.91420
   1086.22  3.02932
   1100.44  3.14900
   1114.85  3.27337
   1129.44  3.40269
   1144.22  3.53713
   1159.20  3.67688
   1174.37  3.82214
   1189.74  3.97310
   1205.32  4.13005
   1221.09  4.29321
   1237.08  4.46282
   1253.27  4.63911
   1269.68  4.82238
   1286.29  5.01288
   1303.13  5.21091
   1320.19  5.41675
   1337.47  5.63073
   1354.98  5.85317
   1372.71  6.08454
   1390.68  6.32515
   1408.88  6.57525
   1427.33  6.83521
   1446.01  7.10541
   1464.94  7.38639
   1484.11  7.67840
   1503.54  7.98194
   1523.22  8.29963
   1543.16  8.63494
   1563.36  8.98369
   1583.82  9.34656
   1604.55  9.72407
   1625.55  10.1168
   1646.83  10.5254
   1668.39  10.9505
   1690.23  11.3928
   1712.35  11.8529
   1734.76  12.3316
   1757.47  12.8296
   1780.48  13.3477
   1803.78  13.8867
   1827.39  14.4474
   1851.31  15.0307
   1875.54  15.6376
   1900.09  16.2690
   1924.97  16.9258
   1950.16  17.6091
   1975.69  18.3200
   2001.55  19.0596
   2027.75  19.8306
   2054.29  20.6477
   2081.18  21.4986
   2108.42  22.3844
   2136.02  23.3066
   2163.98  24.2669
   2192.31  25.2666
   2221.00  26.3074
   2250.07  27.3910
   2279.53  28.5193
   2309.36  29.6940
   2339.59  30.9166
   2370.22  32.1898
   2401.24  33.5152
   2432.67  34.8950
   2464.51  36.3315
   2496.77  37.8270
   2529.46  39.3839
   2562.56  41.0045
   2596.11  42.6916
   2630.09  44.4481
   2664.52  46.2767
   2699.39  48.1800
   2734.73  50.1616
   2770.52  52.2242
   2806.79  54.3713
   2843.53  56.6062
   2880.75  58.9326
   2918.46  61.3539
   2956.66  63.8742
   2995.36  66.4976
   3034.57  69.2421
   3074.29  72.1404
   3114.53  75.1587
   3155.29  78.3030
   3196.60  81.5780
   3238.44  84.9890
   3280.83  88.5412
   3323.77  92.2410
   3367.28  96.0949
   3411.35  100.108
   3456.01  104.288
   3501.24  108.641
   3547.07  113.174
   3593.50  117.894
   3640.54  122.809
   3688.19  127.927
   3736.47  133.256
   3785.38  138.805
   3834.93  144.581
   3885.13  150.595
   3935.98  156.855
   3987.50  163.373
   4039.69  170.159
   4092.57  177.223
   4146.14  184.647
   4200.41  192.394
   4255.39  200.460
   4311.09  208.859
   4367.52  217.603
   4424.69  226.707
   4482.61  236.183
   4541.29  246.047
   4600.73  256.315
   4660.95  267.001
   4721.96  278.121
   4783.77  289.692
   4846.39  301.732
   4909.82  314.260
   4974.09  327.292
   5039.20  340.849
   5105.16  354.952
   5171.98  369.617
   5239.68  384.909
   5308.27  400.913
   5377.75  417.555
   5448.14  434.862
   5519.45  452.856
   5591.70  471.560
   5664.89  491.001
   5739.04  511.206
   5814.17  532.198
   5890.27  554.007
   5967.37  576.660
   6045.48  600.189
   6124.61  624.621
   6204.78  649.984
   6286.00  676.309
   6368.28  703.722
   6451.64  732.265
   6536.09  761.874
   6621.64  792.586
   6708.31  824.427
   6796.12  857.435
   6885.08  891.642
   6975.20  927.076
   7066.50  963.772
   7159.00  1001.77
   7252.71  1041.09
   7347.64  1081.77
   7443.82  1123.83
   7541.26  1167.32
   7639.97  1212.26
   7739.97  1258.68
   7841.28  1306.61
   7943.92  1356.06
   8047.90  1407.11
   8153.25  1459.81
   8259.97  1514.12
   8368.09  1570.30
   8477.62  1628.37
   8588.59  1688.14
   8701.01  1749.63
   8814.90  1812.84
   8930.29  1877.80
   9047.18  1944.49
   9165.60  2012.91
   9285.58  2083.08
   9407.12  2154.98
   9530.25  2228.59
   9655.00  2303.90
   9781.38  2380.90
   9909.41  2459.55
   10039.1  2540.04
   10170.5  2622.63
   10303.7  2706.88
   10438.5  2792.73
   10575.2  2880.14
   10713.6  2969.07
   10853.8  3059.46
   10995.9  3151.26
   11139.8  3244.39
   11285.6  3338.77
   11433.4  3434.34
   11583.0  3531.01
   11734.6  3628.69
   11888.2  3727.29
   12043.8  3826.71
   12201.5  3926.83
   12361.2  4027.62
   12523.0  4129.50
   12686.9  4232.07
   12853.0  4334.94
   13021.2  4437.96
   13191.7  4541.00
   13364.3  4643.97
   13539.3  4746.74
   13716.5  4849.16
   13896.0  4951.09
   14077.9  5052.45
   14262.2  5153.07
   14448.9  5252.86
   14638.0  5351.68
   14829.6  5449.41
   15023.7  5546.50
   15220.4  5646.63
   15419.6  5745.68
   15621.5  5843.57
   15825.9  5940.21
   16033.1  6035.50
   16243.0  6129.36
   16455.6  6222.16
   16671.0  6313.55
   16889.2  6403.26
   17110.2  6491.17
   17334.2  6577.27
   17561.1  6661.48
   17791.0  6743.74
   18023.8  6824.01
   18259.8  6902.25
   18498.8  6978.41
   18740.9  7052.46
   18986.2  7124.40
   19234.8  7194.21
   19486.5  7261.83
   19741.6  7327.30
   20000.0  7390.59
