 Be Density=9.048, Angle=90.deg
 Photon Energy (eV), Atten Length (microns)
   30.0000  2.392577E-02
   30.3927  2.505690E-02
   30.7905  2.624138E-02
   31.1935  2.748192E-02
   31.6019  2.878115E-02
   32.0155  3.014178E-02
   32.4346  3.156671E-02
   32.8591  3.305905E-02
   33.2892  3.462198E-02
   33.7250  3.625876E-02
   34.1664  3.775920E-02
   34.6136  3.910771E-02
   35.0667  4.036424E-02
   35.5257  4.166102E-02
   35.9907  4.299963E-02
   36.4618  4.438126E-02
   36.9391  4.580721E-02
   37.4226  4.727899E-02
   37.9125  4.879821E-02
   38.4087  5.036601E-02
   38.9115  5.196840E-02
   39.4208  5.274369E-02
   39.9368  5.379331E-02
   40.4596  5.484164E-02
   40.9891  5.587749E-02
   41.5257  5.727354E-02
   42.0692  5.848490E-02
   42.6199  5.983172E-02
   43.1778  6.111230E-02
   43.7429  6.244978E-02
   44.3155  6.370112E-02
   44.8956  6.518914E-02
   45.4832  6.690571E-02
   46.0786  6.862226E-02
   46.6817  7.010407E-02
   47.2928  7.158689E-02
   47.9118  7.298713E-02
   48.5390  7.397301E-02
   49.1743  7.496730E-02
   49.8180  7.645446E-02
   50.4701  7.689749E-02
   51.1307  7.724851E-02
   51.8000  7.760096E-02
   52.4780  7.827585E-02
   53.1649  7.926603E-02
   53.8608  8.082496E-02
   54.5658  8.228399E-02
   55.2801  8.369390E-02
   56.0037  8.534439E-02
   56.7367  8.768079E-02
   57.4794  8.979803E-02
   58.2318  9.171654E-02
   58.9940  9.387501E-02
   59.7662  9.566182E-02
   60.5485  9.721589E-02
   61.3411  9.895750E-02
   62.1440  0.100024
   62.9574  0.101428
   63.7815  0.102546
   64.6164  0.103821
   65.4622  0.104867
   66.3190  0.106373
   67.1871  0.107608
   68.0666  0.109052
   68.9575  0.110687
   69.8601  0.112824
   70.7746  0.114771
   71.7010  0.116253
   72.6395  0.117824
   73.5903  0.119243
   74.5536  0.120786
   75.5294  0.122080
   76.5181  0.122987
   77.5197  0.123934
   78.5344  0.124843
   79.5623  0.125869
   80.6038  0.126654
   81.6588  0.127475
   82.7277  0.128588
   83.8106  0.129817
   84.9076  0.131427
   86.0190  0.133028
   87.1450  0.134821
   88.2857  0.136723
   89.4413  0.138687
   90.6120  0.140697
   91.7981  0.142742
   92.9997  0.144818
   94.2170  0.146822
   95.4502  0.148782
   96.6996  0.150761
   97.9654  0.152474
   99.2477  0.154550
   100.547  0.156614
   101.863  0.158935
   103.196  0.160802
   104.547  0.162921
   105.916  0.165494
   107.302  0.165894
   108.706  0.162678
   110.129  0.152742
   111.571  0.121433
   113.031  8.450695E-03
   114.511  8.717455E-03
   116.010  8.357642E-03
   117.528  6.833609E-03
   119.067  5.971587E-03
   120.625  5.708059E-03
   122.204  5.264372E-03
   123.804  5.171594E-03
   125.424  4.501934E-03
   127.066  4.737761E-03
   128.729  6.352160E-03
   130.414  8.493525E-03
   132.121  1.037133E-02
   133.851  1.078939E-02
   135.603  1.092098E-02
   137.378  1.119804E-02
   139.176  1.157328E-02
   140.998  1.160040E-02
   142.843  1.159445E-02
   144.713  1.177025E-02
   146.607  1.197474E-02
   148.526  1.192374E-02
   150.470  1.193869E-02
   152.440  1.204394E-02
   154.435  1.200838E-02
   156.457  1.184452E-02
   158.505  1.176546E-02
   160.579  1.191622E-02
   162.681  1.241538E-02
   164.811  1.340056E-02
   166.968  1.444874E-02
   169.154  1.545890E-02
   171.368  1.609114E-02
   173.611  1.678090E-02
   175.883  1.744927E-02
   178.185  1.850010E-02
   180.518  1.918371E-02
   182.881  1.963878E-02
   185.275  2.007950E-02
   187.700  2.054124E-02
   190.157  2.081102E-02
   192.646  2.124533E-02
   195.167  2.184718E-02
   197.722  2.236419E-02
   200.310  2.279232E-02
   202.932  2.318746E-02
   205.588  2.364800E-02
   208.279  2.434663E-02
   211.006  2.505365E-02
   213.768  2.591071E-02
   216.566  2.665086E-02
   219.400  2.753493E-02
   222.272  2.828301E-02
   225.182  2.904714E-02
   228.129  3.018517E-02
   231.115  3.152329E-02
   234.140  3.314165E-02
   237.205  3.430382E-02
   240.310  3.541909E-02
   243.456  3.647808E-02
   246.642  3.752742E-02
   249.871  3.803756E-02
   253.141  3.929824E-02
   256.455  4.067994E-02
   259.812  4.210986E-02
   263.213  4.359053E-02
   266.658  4.512320E-02
   270.148  4.670969E-02
   273.685  4.835204E-02
   277.267  5.005221E-02
   280.896  5.181198E-02
   284.573  5.363356E-02
   288.298  5.551911E-02
   292.072  5.747116E-02
   295.895  5.949201E-02
   299.768  6.158358E-02
   303.692  6.374908E-02
   307.667  6.599028E-02
   311.694  6.831037E-02
   315.774  7.070263E-02
   319.907  7.314189E-02
   324.095  7.566599E-02
   328.337  7.827640E-02
   332.635  8.097705E-02
   336.989  8.377106E-02
   341.400  8.666139E-02
   345.868  8.965170E-02
   350.396  9.274492E-02
   354.982  9.594478E-02
   359.629  9.925528E-02
   364.336  0.102680
   369.105  0.106223
   373.936  0.109888
   378.831  0.113680
   383.790  0.117602
   388.813  0.121691
   393.903  0.126076
   399.059  0.130619
   404.282  0.135431
   409.574  0.140465
   414.935  0.145687
   420.367  0.151102
   425.869  0.156719
   431.443  0.162544
   437.091  0.168586
   442.812  0.174852
   448.608  0.181352
   454.480  0.188093
   460.429  0.195085
   466.456  0.202336
   472.562  0.209857
   478.747  0.217658
   485.014  0.225748
   491.363  0.234140
   497.794  0.242843
   504.310  0.251870
   510.911  0.261233
   517.599  0.270943
   524.374  0.281014
   531.238  0.291459
   538.191  0.302293
   545.236  0.313531
   552.373  0.325185
   559.603  0.337271
   566.928  0.350061
   574.349  0.363401
   581.867  0.377249
   589.483  0.391624
   597.199  0.406548
   605.016  0.422041
   612.936  0.438124
   620.959  0.454819
   629.087  0.472151
   637.321  0.490143
   645.663  0.509867
   654.115  0.530467
   662.677  0.551899
   671.351  0.573919
   680.139  0.595837
   689.041  0.617285
   698.061  0.639499
   707.198  0.663338
   716.455  0.688840
   725.833  0.715354
   735.334  0.743366
   744.959  0.772479
   754.710  0.802731
   764.589  0.834169
   774.597  0.866836
   784.736  0.900783
   795.008  0.936062
   805.414  0.972717
   815.956  1.01081
   826.637  1.05039
   837.457  1.09154
   848.419  1.13428
   859.524  1.17870
   870.775  1.22486
   882.173  1.27275
   893.720  1.32231
   905.419  1.37378
   917.270  1.42727
   929.277  1.48284
   941.441  1.54083
   953.764  1.60171
   966.248  1.66499
   978.896  1.73076
   991.709  1.79914
   1004.69  1.87022
   1017.84  1.94410
   1031.16  2.02090
   1044.66  2.10074
   1058.34  2.18375
   1072.19  2.27004
   1086.22  2.35971
   1100.44  2.45293
   1114.85  2.54981
   1129.44  2.65054
   1144.22  2.75527
   1159.20  2.86413
   1174.37  2.97729
   1189.74  3.09487
   1205.32  3.21713
   1221.09  3.34423
   1237.08  3.47634
   1253.27  3.61367
   1269.68  3.75643
   1286.29  3.90481
   1303.13  4.05907
   1320.19  4.21942
   1337.47  4.38610
   1354.98  4.55937
   1372.71  4.73959
   1390.68  4.92701
   1408.88  5.12184
   1427.33  5.32433
   1446.01  5.53481
   1464.94  5.75368
   1484.11  5.98114
   1503.54  6.21759
   1523.22  6.46505
   1543.16  6.72624
   1563.36  6.99791
   1583.82  7.28056
   1604.55  7.57463
   1625.55  7.88055
   1646.83  8.19880
   1668.39  8.52994
   1690.23  8.87450
   1712.35  9.23292
   1734.76  9.60577
   1757.47  9.99369
   1780.48  10.3973
   1803.78  10.8171
   1827.39  11.2539
   1851.31  11.7083
   1875.54  12.1810
   1900.09  12.6729
   1924.97  13.1845
   1950.16  13.7167
   1975.69  14.2705
   2001.55  14.8466
   2027.75  15.4472
   2054.29  16.0837
   2081.18  16.7465
   2108.42  17.4365
   2136.02  18.1549
   2163.98  18.9029
   2192.31  19.6816
   2221.00  20.4923
   2250.07  21.3364
   2279.53  22.2153
   2309.36  23.1303
   2339.59  24.0827
   2370.22  25.0745
   2401.24  26.1069
   2432.67  27.1817
   2464.51  28.3006
   2496.77  29.4656
   2529.46  30.6784
   2562.56  31.9407
   2596.11  33.2549
   2630.09  34.6232
   2664.52  36.0476
   2699.39  37.5301
   2734.73  39.0737
   2770.52  40.6804
   2806.79  42.3529
   2843.53  44.0938
   2880.75  45.9059
   2918.46  47.7920
   2956.66  49.7552
   2995.36  51.7987
   3034.57  53.9366
   3074.29  56.1943
   3114.53  58.5453
   3155.29  60.9947
   3196.60  63.5457
   3238.44  66.2027
   3280.83  68.9697
   3323.77  71.8517
   3367.28  74.8537
   3411.35  77.9800
   3456.01  81.2359
   3501.24  84.6266
   3547.07  88.1577
   3593.50  91.8345
   3640.54  95.6629
   3688.19  99.6496
   3736.47  103.801
   3785.38  108.123
   3834.93  112.623
   3885.13  117.307
   3935.98  122.183
   3987.50  127.260
   4039.69  132.546
   4092.57  138.049
   4146.14  143.832
   4200.41  149.866
   4255.39  156.150
   4311.09  162.692
   4367.52  169.503
   4424.69  176.595
   4482.61  183.977
   4541.29  191.660
   4600.73  199.658
   4660.95  207.982
   4721.96  216.644
   4783.77  225.657
   4846.39  235.037
   4909.82  244.795
   4974.09  254.946
   5039.20  265.507
   5105.16  276.492
   5171.98  287.916
   5239.68  299.828
   5308.27  312.294
   5377.75  325.257
   5448.14  338.739
   5519.45  352.755
   5591.70  367.325
   5664.89  382.469
   5739.04  398.208
   5814.17  414.559
   5890.27  431.547
   5967.37  449.193
   6045.48  467.521
   6124.61  486.553
   6204.78  506.309
   6286.00  526.816
   6368.28  548.169
   6451.64  570.402
   6536.09  593.467
   6621.64  617.391
   6708.31  642.193
   6796.12  667.904
   6885.08  694.550
   6975.20  722.152
   7066.50  750.737
   7159.00  780.335
   7252.71  810.963
   7347.64  842.648
   7443.82  875.417
   7541.26  909.292
   7639.97  944.295
   7739.97  980.456
   7841.28  1017.79
   7943.92  1056.31
   8047.90  1096.08
   8153.25  1137.13
   8259.97  1179.43
   8368.09  1223.19
   8477.62  1268.43
   8588.59  1314.99
   8701.01  1362.89
   8814.90  1412.13
   8930.29  1462.72
   9047.18  1514.67
   9165.60  1567.97
   9285.58  1622.63
   9407.12  1678.63
   9530.25  1735.97
   9655.00  1794.64
   9781.38  1854.62
   9909.41  1915.89
   10039.1  1978.58
   10170.5  2042.92
   10303.7  2108.54
   10438.5  2175.42
   10575.2  2243.51
   10713.6  2312.78
   10853.8  2383.19
   10995.9  2454.70
   11139.8  2527.24
   11285.6  2600.75
   11433.4  2675.21
   11583.0  2750.50
   11734.6  2826.59
   11888.2  2903.39
   12043.8  2980.84
   12201.5  3058.83
   12361.2  3137.34
   12523.0  3216.70
   12686.9  3296.60
   12853.0  3376.73
   13021.2  3456.98
   13191.7  3537.24
   13364.3  3617.45
   13539.3  3697.50
   13716.5  3777.28
   13896.0  3856.68
   14077.9  3935.64
   14262.2  4014.02
   14448.9  4091.75
   14638.0  4168.72
   14829.6  4244.85
   15023.7  4320.48
   15220.4  4398.48
   15419.6  4475.63
   15621.5  4551.88
   15825.9  4627.17
   16033.1  4701.40
   16243.0  4774.51
   16455.6  4846.79
   16671.0  4917.98
   16889.2  4987.87
   17110.2  5056.34
   17334.2  5123.41
   17561.1  5189.01
   17791.0  5253.08
   18023.8  5315.61
   18259.8  5376.55
   18498.8  5435.88
   18740.9  5493.56
   18986.2  5549.60
   19234.8  5603.97
   19486.5  5656.65
   19741.6  5707.65
   20000.0  5756.95
