 Be Density=10.05, Angle=90.deg
 Photon Energy (eV), Atten Length (microns)
   30.0000  2.154462E-02
   30.3927  2.256318E-02
   30.7905  2.362978E-02
   31.1935  2.474686E-02
   31.6019  2.591678E-02
   32.0155  2.714200E-02
   32.4346  2.842512E-02
   32.8591  2.976894E-02
   33.2892  3.117632E-02
   33.7250  3.265020E-02
   34.1664  3.400132E-02
   34.6136  3.521562E-02
   35.0667  3.634709E-02
   35.5257  3.751482E-02
   35.9907  3.872021E-02
   36.4618  3.996433E-02
   36.9391  4.124838E-02
   37.4226  4.257367E-02
   37.9125  4.394170E-02
   38.4087  4.535347E-02
   38.9115  4.679639E-02
   39.4208  4.749452E-02
   39.9368  4.843968E-02
   40.4596  4.938367E-02
   40.9891  5.031643E-02
   41.5257  5.157355E-02
   42.0692  5.266436E-02
   42.6199  5.387714E-02
   43.1778  5.503027E-02
   43.7429  5.623463E-02
   44.3155  5.736145E-02
   44.8956  5.870137E-02
   45.4832  6.024710E-02
   46.0786  6.179281E-02
   46.6817  6.312715E-02
   47.2928  6.446240E-02
   47.9118  6.572328E-02
   48.5390  6.661106E-02
   49.1743  6.750638E-02
   49.8180  6.884554E-02
   50.4701  6.924447E-02
   51.1307  6.956056E-02
   51.8000  6.987794E-02
   52.4780  7.048566E-02
   53.1649  7.137730E-02
   53.8608  7.278108E-02
   54.5658  7.409491E-02
   55.2801  7.536449E-02
   56.0037  7.685073E-02
   56.7367  7.895460E-02
   57.4794  8.086113E-02
   58.2318  8.258869E-02
   58.9940  8.453236E-02
   59.7662  8.614134E-02
   60.5485  8.754074E-02
   61.3411  8.910903E-02
   62.1440  9.006904E-02
   62.9574  9.133321E-02
   63.7815  9.233996E-02
   64.6164  9.348812E-02
   65.4622  9.443011E-02
   66.3190  9.578651E-02
   67.1871  9.689829E-02
   68.0666  9.819864E-02
   68.9575  9.967159E-02
   69.8601  0.101596
   70.7746  0.103348
   71.7010  0.104683
   72.6395  0.106098
   73.5903  0.107376
   74.5536  0.108765
   75.5294  0.109930
   76.5181  0.110747
   77.5197  0.111600
   78.5344  0.112418
   79.5623  0.113342
   80.6038  0.114049
   81.6588  0.114788
   82.7277  0.115791
   83.8106  0.116897
   84.9076  0.118347
   86.0190  0.119789
   87.1450  0.121404
   88.2857  0.123116
   89.4413  0.124884
   90.6120  0.126694
   91.7981  0.128536
   92.9997  0.130405
   94.2170  0.132210
   95.4502  0.133974
   96.6996  0.135757
   97.9654  0.137299
   99.2477  0.139169
   100.547  0.141027
   101.863  0.143118
   103.196  0.144799
   104.547  0.146707
   105.916  0.149023
   107.302  0.149384
   108.706  0.146488
   110.129  0.137541
   111.571  0.109347
   113.031  7.609663E-03
   114.511  7.849873E-03
   116.010  7.525870E-03
   117.528  6.153513E-03
   119.067  5.377281E-03
   120.625  5.139980E-03
   122.204  4.740450E-03
   123.804  4.656905E-03
   125.424  4.053892E-03
   127.066  4.266249E-03
   128.729  5.719978E-03
   130.414  7.648231E-03
   132.121  9.339155E-03
   133.851  9.715603E-03
   135.603  9.834104E-03
   137.378  1.008359E-02
   139.176  1.042148E-02
   140.998  1.044590E-02
   142.843  1.044054E-02
   144.713  1.059885E-02
   146.607  1.078299E-02
   148.526  1.073707E-02
   150.470  1.075053E-02
   152.440  1.084530E-02
   154.435  1.081327E-02
   156.457  1.066573E-02
   158.505  1.059453E-02
   160.579  1.073029E-02
   162.681  1.117977E-02
   164.811  1.206691E-02
   166.968  1.301077E-02
   169.154  1.392040E-02
   171.368  1.448972E-02
   173.611  1.511083E-02
   175.883  1.571268E-02
   178.185  1.665893E-02
   180.518  1.727451E-02
   182.881  1.768428E-02
   185.275  1.808115E-02
   187.700  1.849693E-02
   190.157  1.873986E-02
   192.646  1.913095E-02
   195.167  1.967289E-02
   197.722  2.013846E-02
   200.310  2.052398E-02
   202.932  2.087980E-02
   205.588  2.129450E-02
   208.279  2.192360E-02
   211.006  2.256025E-02
   213.768  2.333201E-02
   216.566  2.399850E-02
   219.400  2.479459E-02
   222.272  2.546821E-02
   225.182  2.615630E-02
   228.129  2.718107E-02
   231.115  2.838602E-02
   234.140  2.984332E-02
   237.205  3.088983E-02
   240.310  3.189410E-02
   243.456  3.284770E-02
   246.642  3.379260E-02
   249.871  3.425198E-02
   253.141  3.538718E-02
   256.455  3.663138E-02
   259.812  3.791899E-02
   263.213  3.925230E-02
   266.658  4.063243E-02
   270.148  4.206104E-02
   273.685  4.353994E-02
   277.267  4.507090E-02
   280.896  4.665553E-02
   284.573  4.829583E-02
   288.298  4.999372E-02
   292.072  5.175149E-02
   295.895  5.357123E-02
   299.768  5.545463E-02
   303.692  5.740463E-02
   307.667  5.942278E-02
   311.694  6.151196E-02
   315.774  6.366614E-02
   319.907  6.586264E-02
   324.095  6.813554E-02
   328.337  7.048617E-02
   332.635  7.291803E-02
   336.989  7.543398E-02
   341.400  7.803665E-02
   345.868  8.072936E-02
   350.396  8.351474E-02
   354.982  8.639614E-02
   359.629  8.937715E-02
   364.336  9.246121E-02
   369.105  9.565116E-02
   373.936  9.895168E-02
   378.831  0.102366
   383.790  0.105898
   388.813  0.109580
   393.903  0.113529
   399.059  0.117620
   404.282  0.121953
   409.574  0.126486
   414.935  0.131187
   420.367  0.136064
   425.869  0.141122
   431.443  0.146367
   437.091  0.151808
   442.812  0.157451
   448.608  0.163304
   454.480  0.169374
   460.429  0.175669
   466.456  0.182199
   472.562  0.188972
   478.747  0.195996
   485.014  0.203281
   491.363  0.210838
   497.794  0.218675
   504.310  0.226803
   510.911  0.235234
   517.599  0.243978
   524.374  0.253047
   531.238  0.262453
   538.191  0.272209
   545.236  0.282327
   552.373  0.292821
   559.603  0.303705
   566.928  0.315222
   574.349  0.327235
   581.867  0.339704
   589.483  0.352649
   597.199  0.366088
   605.016  0.380039
   612.936  0.394521
   620.959  0.409555
   629.087  0.425162
   637.321  0.441363
   645.663  0.459124
   654.115  0.477674
   662.677  0.496973
   671.351  0.516802
   680.139  0.536538
   689.041  0.555851
   698.061  0.575854
   707.198  0.597321
   716.455  0.620285
   725.833  0.644161
   735.334  0.669385
   744.959  0.695600
   754.710  0.722842
   764.589  0.751151
   774.597  0.780567
   784.736  0.811135
   795.008  0.842903
   805.414  0.875910
   815.956  0.910210
   826.637  0.945857
   837.457  0.982904
   848.419  1.02139
   859.524  1.06139
   870.775  1.10296
   882.173  1.14608
   893.720  1.19071
   905.419  1.23706
   917.270  1.28522
   929.277  1.33526
   941.441  1.38749
   953.764  1.44231
   966.248  1.49929
   978.896  1.55851
   991.709  1.62009
   1004.69  1.68409
   1017.84  1.75062
   1031.16  1.81978
   1044.66  1.89167
   1058.34  1.96642
   1072.19  2.04412
   1086.22  2.12487
   1100.44  2.20881
   1114.85  2.29605
   1129.44  2.38676
   1144.22  2.48106
   1159.20  2.57908
   1174.37  2.68098
   1189.74  2.78686
   1205.32  2.89695
   1221.09  3.01140
   1237.08  3.13037
   1253.27  3.25403
   1269.68  3.38258
   1286.29  3.51620
   1303.13  3.65510
   1320.19  3.79949
   1337.47  3.94958
   1354.98  4.10561
   1372.71  4.26790
   1390.68  4.43667
   1408.88  4.61210
   1427.33  4.79444
   1446.01  4.98397
   1464.94  5.18106
   1484.11  5.38588
   1503.54  5.59880
   1523.22  5.82163
   1543.16  6.05683
   1563.36  6.30146
   1583.82  6.55598
   1604.55  6.82078
   1625.55  7.09626
   1646.83  7.38284
   1668.39  7.68102
   1690.23  7.99129
   1712.35  8.31404
   1734.76  8.64978
   1757.47  8.99910
   1780.48  9.36252
   1803.78  9.74059
   1827.39  10.1339
   1851.31  10.5431
   1875.54  10.9688
   1900.09  11.4116
   1924.97  11.8723
   1950.16  12.3516
   1975.69  12.8502
   2001.55  13.3690
   2027.75  13.9098
   2054.29  14.4830
   2081.18  15.0798
   2108.42  15.7011
   2136.02  16.3480
   2163.98  17.0216
   2192.31  17.7228
   2221.00  18.4529
   2250.07  19.2129
   2279.53  20.0044
   2309.36  20.8283
   2339.59  21.6859
   2370.22  22.5790
   2401.24  23.5087
   2432.67  24.4765
   2464.51  25.4841
   2496.77  26.5331
   2529.46  27.6252
   2562.56  28.7619
   2596.11  29.9453
   2630.09  31.1774
   2664.52  32.4600
   2699.39  33.7951
   2734.73  35.1850
   2770.52  36.6318
   2806.79  38.1378
   2843.53  39.7055
   2880.75  41.3373
   2918.46  43.0357
   2956.66  44.8035
   2995.36  46.6436
   3034.57  48.5687
   3074.29  50.6017
   3114.53  52.7188
   3155.29  54.9244
   3196.60  57.2215
   3238.44  59.6141
   3280.83  62.1057
   3323.77  64.7009
   3367.28  67.4041
   3411.35  70.2193
   3456.01  73.1511
   3501.24  76.2043
   3547.07  79.3840
   3593.50  82.6950
   3640.54  86.1423
   3688.19  89.7323
   3736.47  93.4703
   3785.38  97.3621
   3834.93  101.414
   3885.13  105.632
   3935.98  110.023
   3987.50  114.595
   4039.69  119.355
   4092.57  124.310
   4146.14  129.517
   4200.41  134.951
   4255.39  140.610
   4311.09  146.501
   4367.52  152.634
   4424.69  159.020
   4482.61  165.667
   4541.29  172.586
   4600.73  179.788
   4660.95  187.283
   4721.96  195.083
   4783.77  203.199
   4846.39  211.645
   4909.82  220.432
   4974.09  229.573
   5039.20  239.083
   5105.16  248.975
   5171.98  259.262
   5239.68  269.988
   5308.27  281.214
   5377.75  292.887
   5448.14  305.027
   5519.45  317.648
   5591.70  330.768
   5664.89  344.404
   5739.04  358.577
   5814.17  373.301
   5890.27  388.599
   5967.37  404.488
   6045.48  420.992
   6124.61  438.130
   6204.78  455.920
   6286.00  474.386
   6368.28  493.614
   6451.64  513.635
   6536.09  534.404
   6621.64  555.946
   6708.31  578.281
   6796.12  601.433
   6885.08  625.427
   6975.20  650.281
   7066.50  676.022
   7159.00  702.674
   7252.71  730.254
   7347.64  758.786
   7443.82  788.293
   7541.26  818.797
   7639.97  850.317
   7739.97  882.878
   7841.28  916.498
   7943.92  951.187
   8047.90  986.995
   8153.25  1023.96
   8259.97  1062.05
   8368.09  1101.46
   8477.62  1142.19
   8588.59  1184.12
   8701.01  1227.25
   8814.90  1271.59
   8930.29  1317.15
   9047.18  1363.93
   9165.60  1411.92
   9285.58  1461.14
   9407.12  1511.57
   9530.25  1563.21
   9655.00  1616.03
   9781.38  1670.04
   9909.41  1725.21
   10039.1  1781.67
   10170.5  1839.60
   10303.7  1898.69
   10438.5  1958.91
   10575.2  2020.23
   10713.6  2082.61
   10853.8  2146.01
   10995.9  2210.40
   11139.8  2275.73
   11285.6  2341.92
   11433.4  2408.96
   11583.0  2476.77
   11734.6  2545.28
   11888.2  2614.44
   12043.8  2684.18
   12201.5  2754.41
   12361.2  2825.11
   12523.0  2896.57
   12686.9  2968.51
   12853.0  3040.67
   13021.2  3112.93
   13191.7  3185.21
   13364.3  3257.43
   13539.3  3329.52
   13716.5  3401.36
   13896.0  3472.86
   14077.9  3543.96
   14262.2  3614.53
   14448.9  3684.53
   14638.0  3753.84
   14829.6  3822.40
   15023.7  3890.50
   15220.4  3960.73
   15419.6  4030.21
   15621.5  4098.87
   15825.9  4166.66
   16033.1  4233.50
   16243.0  4299.34
   16455.6  4364.43
   16671.0  4428.54
   16889.2  4491.46
   17110.2  4553.12
   17334.2  4613.51
   17561.1  4672.58
   17791.0  4730.28
   18023.8  4786.59
   18259.8  4841.47
   18498.8  4894.89
   18740.9  4946.83
   18986.2  4997.29
   19234.8  5046.25
   19486.5  5093.69
   19741.6  5139.61
   20000.0  5184.00
