 Be Density=15.05, Angle=90.deg
 Photon Energy (eV), Atten Length (microns)
   30.0000  1.438599E-02
   30.3927  1.506611E-02
   30.7905  1.577831E-02
   31.1935  1.652422E-02
   31.6019  1.730541E-02
   32.0155  1.812352E-02
   32.4346  1.898030E-02
   32.8591  1.987761E-02
   33.2892  2.081736E-02
   33.7250  2.180152E-02
   34.1664  2.270370E-02
   34.6136  2.351453E-02
   35.0667  2.427005E-02
   35.5257  2.504977E-02
   35.9907  2.585464E-02
   36.4618  2.668538E-02
   36.9391  2.754278E-02
   37.4226  2.842772E-02
   37.9125  2.934119E-02
   38.4087  3.028387E-02
   38.9115  3.124735E-02
   39.4208  3.171352E-02
   39.9368  3.234462E-02
   40.4596  3.297496E-02
   40.9891  3.359779E-02
   41.5257  3.443720E-02
   42.0692  3.516557E-02
   42.6199  3.597538E-02
   43.1778  3.674535E-02
   43.7429  3.754955E-02
   44.3155  3.830195E-02
   44.8956  3.919666E-02
   45.4832  4.022880E-02
   46.0786  4.126091E-02
   46.6817  4.215189E-02
   47.2928  4.304348E-02
   47.9118  4.388540E-02
   48.5390  4.447820E-02
   49.1743  4.507603E-02
   49.8180  4.597022E-02
   50.4701  4.623661E-02
   51.1307  4.644767E-02
   51.8000  4.665959E-02
   52.4780  4.706538E-02
   53.1649  4.766076E-02
   53.8608  4.859810E-02
   54.5658  4.947538E-02
   55.2801  5.032313E-02
   56.0037  5.131553E-02
   56.7367  5.272034E-02
   57.4794  5.399340E-02
   58.2318  5.514694E-02
   58.9940  5.644479E-02
   59.7662  5.751915E-02
   60.5485  5.845357E-02
   61.3411  5.950077E-02
   62.1440  6.014179E-02
   62.9574  6.098592E-02
   63.7815  6.165816E-02
   64.6164  6.242482E-02
   65.4622  6.305382E-02
   66.3190  6.395952E-02
   67.1871  6.470188E-02
   68.0666  6.557018E-02
   68.9575  6.655371E-02
   69.8601  6.783859E-02
   70.7746  6.900889E-02
   71.7010  6.990028E-02
   72.6395  7.084467E-02
   73.5903  7.169804E-02
   74.5536  7.262564E-02
   75.5294  7.340384E-02
   76.5181  7.394931E-02
   77.5197  7.451867E-02
   78.5344  7.506516E-02
   79.5623  7.568192E-02
   80.6038  7.615396E-02
   81.6588  7.664736E-02
   82.7277  7.731717E-02
   83.8106  7.805589E-02
   84.9076  7.902396E-02
   86.0190  7.998671E-02
   87.1450  8.106489E-02
   88.2857  8.220819E-02
   89.4413  8.338907E-02
   90.6120  8.459763E-02
   91.7981  8.582726E-02
   92.9997  8.707535E-02
   94.2170  8.828038E-02
   95.4502  8.945876E-02
   96.6996  9.064869E-02
   97.9654  9.167866E-02
   99.2477  9.292734E-02
   100.547  9.416798E-02
   101.863  9.556402E-02
   103.196  9.668630E-02
   104.547  9.796079E-02
   105.916  9.950726E-02
   107.302  9.974822E-02
   108.706  9.781457E-02
   110.129  9.184013E-02
   111.571  7.301454E-02
   113.031  5.081200E-03
   114.511  5.241595E-03
   116.010  5.025249E-03
   117.528  4.108885E-03
   119.067  3.590572E-03
   120.625  3.432119E-03
   122.204  3.165340E-03
   123.804  3.109555E-03
   125.424  2.706905E-03
   127.066  2.848702E-03
   128.729  3.819401E-03
   130.414  5.106953E-03
   132.121  6.236034E-03
   133.851  6.487399E-03
   135.603  6.566526E-03
   137.378  6.733113E-03
   139.176  6.958734E-03
   140.998  6.975041E-03
   142.843  6.971462E-03
   144.713  7.077169E-03
   146.607  7.200122E-03
   148.526  7.169460E-03
   150.470  7.178449E-03
   152.440  7.241732E-03
   154.435  7.220347E-03
   156.457  7.121827E-03
   158.505  7.074287E-03
   160.579  7.164938E-03
   162.681  7.465068E-03
   164.811  8.057436E-03
   166.968  8.687683E-03
   169.154  9.295067E-03
   171.368  9.675217E-03
   173.611  1.008995E-02
   175.883  1.049183E-02
   178.185  1.112367E-02
   180.518  1.153471E-02
   182.881  1.180833E-02
   185.275  1.207332E-02
   187.700  1.235095E-02
   190.157  1.251316E-02
   192.646  1.277431E-02
   195.167  1.313618E-02
   197.722  1.344705E-02
   200.310  1.370448E-02
   202.932  1.394206E-02
   205.588  1.421897E-02
   208.279  1.463904E-02
   211.006  1.506416E-02
   213.768  1.557948E-02
   216.566  1.602452E-02
   219.400  1.655609E-02
   222.272  1.700589E-02
   225.182  1.746534E-02
   228.129  1.814961E-02
   231.115  1.895420E-02
   234.140  1.992727E-02
   237.205  2.062606E-02
   240.310  2.129664E-02
   243.456  2.193339E-02
   246.642  2.256433E-02
   249.871  2.287107E-02
   253.141  2.362908E-02
   256.455  2.445987E-02
   259.812  2.531965E-02
   263.213  2.620994E-02
   266.658  2.713149E-02
   270.148  2.808541E-02
   273.685  2.907292E-02
   277.267  3.009519E-02
   280.896  3.115330E-02
   284.573  3.224857E-02
   288.298  3.338230E-02
   292.072  3.455602E-02
   295.895  3.577112E-02
   299.768  3.702873E-02
   303.692  3.833079E-02
   307.667  3.967837E-02
   311.694  4.107338E-02
   315.774  4.251179E-02
   319.907  4.397846E-02
   324.095  4.549614E-02
   328.337  4.706572E-02
   332.635  4.868955E-02
   336.989  5.036952E-02
   341.400  5.210741E-02
   345.868  5.390541E-02
   350.396  5.576529E-02
   354.982  5.768929E-02
   359.629  5.967981E-02
   364.336  6.173912E-02
   369.105  6.386915E-02
   373.936  6.607301E-02
   378.831  6.835280E-02
   383.790  7.071126E-02
   388.813  7.317010E-02
   393.903  7.580669E-02
   399.059  7.853829E-02
   404.282  8.143158E-02
   409.574  8.445852E-02
   414.935  8.759779E-02
   420.367  9.085392E-02
   425.869  9.423137E-02
   431.443  9.773391E-02
   437.091  0.101367
   442.812  0.105135
   448.608  0.109043
   454.480  0.113096
   460.429  0.117300
   466.456  0.121660
   472.562  0.126182
   478.747  0.130873
   485.014  0.135737
   491.363  0.140783
   497.794  0.146016
   504.310  0.151443
   510.911  0.157073
   517.599  0.162911
   524.374  0.168967
   531.238  0.175247
   538.191  0.181762
   545.236  0.188518
   552.373  0.195526
   559.603  0.202793
   566.928  0.210483
   574.349  0.218504
   581.867  0.226831
   589.483  0.235474
   597.199  0.244448
   605.016  0.253763
   612.936  0.263433
   620.959  0.273472
   629.087  0.283893
   637.321  0.294711
   645.663  0.306571
   654.115  0.318957
   662.677  0.331844
   671.351  0.345084
   680.139  0.358263
   689.041  0.371159
   698.061  0.384515
   707.198  0.398849
   716.455  0.414183
   725.833  0.430125
   735.334  0.446968
   744.959  0.464473
   754.710  0.482663
   764.589  0.501566
   774.597  0.521208
   784.736  0.541619
   795.008  0.562831
   805.414  0.584871
   815.956  0.607775
   826.637  0.631577
   837.457  0.656314
   848.419  0.682015
   859.524  0.708723
   870.775  0.736477
   882.173  0.765275
   893.720  0.795071
   905.419  0.826021
   917.270  0.858183
   929.277  0.891594
   941.441  0.926466
   953.764  0.963070
   966.248  1.00112
   978.896  1.04067
   991.709  1.08178
   1004.69  1.12452
   1017.84  1.16894
   1031.16  1.21512
   1044.66  1.26313
   1058.34  1.31304
   1072.19  1.36492
   1086.22  1.41884
   1100.44  1.47489
   1114.85  1.53314
   1129.44  1.59371
   1144.22  1.65668
   1159.20  1.72213
   1174.37  1.79017
   1189.74  1.86087
   1205.32  1.93438
   1221.09  2.01080
   1237.08  2.09024
   1253.27  2.17281
   1269.68  2.25865
   1286.29  2.34787
   1303.13  2.44062
   1320.19  2.53703
   1337.47  2.63725
   1354.98  2.74144
   1372.71  2.84980
   1390.68  2.96250
   1408.88  3.07964
   1427.33  3.20139
   1446.01  3.32795
   1464.94  3.45955
   1484.11  3.59632
   1503.54  3.73848
   1523.22  3.88728
   1543.16  4.04433
   1563.36  4.20767
   1583.82  4.37763
   1604.55  4.55444
   1625.55  4.73838
   1646.83  4.92974
   1668.39  5.12885
   1690.23  5.33603
   1712.35  5.55153
   1734.76  5.77572
   1757.47  6.00897
   1780.48  6.25164
   1803.78  6.50408
   1827.39  6.76671
   1851.31  7.03992
   1875.54  7.32416
   1900.09  7.61989
   1924.97  7.92752
   1950.16  8.24754
   1975.69  8.58049
   2001.55  8.92689
   2027.75  9.28801
   2054.29  9.67071
   2081.18  10.0692
   2108.42  10.4841
   2136.02  10.9161
   2163.98  11.3658
   2192.31  11.8341
   2221.00  12.3215
   2250.07  12.8291
   2279.53  13.3575
   2309.36  13.9077
   2339.59  14.4803
   2370.22  15.0767
   2401.24  15.6975
   2432.67  16.3437
   2464.51  17.0165
   2496.77  17.7170
   2529.46  18.4462
   2562.56  19.2052
   2596.11  19.9954
   2630.09  20.8181
   2664.52  21.6745
   2699.39  22.5660
   2734.73  23.4941
   2770.52  24.4602
   2806.79  25.4658
   2843.53  26.5125
   2880.75  27.6021
   2918.46  28.7362
   2956.66  29.9166
   2995.36  31.1453
   3034.57  32.4308
   3074.29  33.7883
   3114.53  35.2019
   3155.29  36.6746
   3196.60  38.2085
   3238.44  39.8061
   3280.83  41.4698
   3323.77  43.2027
   3367.28  45.0078
   3411.35  46.8875
   3456.01  48.8452
   3501.24  50.8839
   3547.07  53.0071
   3593.50  55.2179
   3640.54  57.5198
   3688.19  59.9169
   3736.47  62.4129
   3785.38  65.0116
   3834.93  67.7172
   3885.13  70.5337
   3935.98  73.4659
   3987.50  76.5184
   4039.69  79.6969
   4092.57  83.0056
   4146.14  86.4827
   4200.41  90.1110
   4255.39  93.8893
   4311.09  97.8229
   4367.52  101.918
   4424.69  106.182
   4482.61  110.621
   4541.29  115.241
   4600.73  120.050
   4660.95  125.055
   4721.96  130.263
   4783.77  135.682
   4846.39  141.322
   4909.82  147.189
   4974.09  153.293
   5039.20  159.643
   5105.16  166.248
   5171.98  173.117
   5239.68  180.279
   5308.27  187.775
   5377.75  195.569
   5448.14  203.676
   5519.45  212.103
   5591.70  220.864
   5664.89  229.969
   5739.04  239.433
   5814.17  249.264
   5890.27  259.479
   5967.37  270.089
   6045.48  281.109
   6124.61  292.552
   6204.78  304.432
   6286.00  316.762
   6368.28  329.601
   6451.64  342.969
   6536.09  356.838
   6621.64  371.222
   6708.31  386.135
   6796.12  401.595
   6885.08  417.616
   6975.20  434.212
   7066.50  451.400
   7159.00  469.197
   7252.71  487.613
   7347.64  506.664
   7443.82  526.367
   7541.26  546.736
   7639.97  567.782
   7739.97  589.524
   7841.28  611.973
   7943.92  635.136
   8047.90  659.046
   8153.25  683.728
   8259.97  709.164
   8368.09  735.477
   8477.62  762.676
   8588.59  790.673
   8701.01  819.471
   8814.90  849.078
   8930.29  879.499
   9047.18  910.736
   9165.60  942.784
   9285.58  975.648
   9407.12  1009.32
   9530.25  1043.80
   9655.00  1079.07
   9781.38  1115.14
   9909.41  1151.98
   10039.1  1189.67
   10170.5  1228.36
   10303.7  1267.81
   10438.5  1308.03
   10575.2  1348.97
   10713.6  1390.62
   10853.8  1432.95
   10995.9  1475.95
   11139.8  1519.57
   11285.6  1563.77
   11433.4  1608.54
   11583.0  1653.81
   11734.6  1699.56
   11888.2  1745.74
   12043.8  1792.31
   12201.5  1839.20
   12361.2  1886.41
   12523.0  1934.13
   12686.9  1982.17
   12853.0  2030.34
   13021.2  2078.60
   13191.7  2126.86
   13364.3  2175.09
   13539.3  2223.22
   13716.5  2271.19
   13896.0  2318.93
   14077.9  2366.41
   14262.2  2413.53
   14448.9  2460.27
   14638.0  2506.55
   14829.6  2552.33
   15023.7  2597.80
   15220.4  2644.70
   15419.6  2691.09
   15621.5  2736.94
   15825.9  2782.20
   16033.1  2826.84
   16243.0  2870.80
   16455.6  2914.26
   16671.0  2957.07
   16889.2  2999.08
   17110.2  3040.25
   17334.2  3080.58
   17561.1  3120.02
   17791.0  3158.55
   18023.8  3196.15
   18259.8  3232.79
   18498.8  3268.46
   18740.9  3303.15
   18986.2  3336.84
   19234.8  3369.53
   19486.5  3401.21
   19741.6  3431.87
   20000.0  3461.51
