 Be Density=15.05, Angle=90.deg
 Photon Energy (eV), Atten Length (microns)
   30.0000  1.438599E-02
   30.3506  1.499212E-02
   30.7053  1.562369E-02
   31.0641  1.628192E-02
   31.4271  1.696789E-02
   31.7944  1.768278E-02
   32.1659  1.842774E-02
   32.5418  1.920412E-02
   32.9221  2.001323E-02
   33.3068  2.085643E-02
   33.6960  2.173515E-02
   34.0898  2.255427E-02
   34.4882  2.330780E-02
   34.8912  2.397574E-02
   35.2990  2.466275E-02
   35.7115  2.536946E-02
   36.1288  2.609649E-02
   36.5510  2.684435E-02
   36.9781  2.761359E-02
   37.4103  2.840488E-02
   37.8474  2.921895E-02
   38.2897  3.005622E-02
   38.7372  3.091750E-02
   39.1899  3.155997E-02
   39.6478  3.196090E-02
   40.1112  3.258412E-02
   40.5799  3.309576E-02
   41.0541  3.366730E-02
   41.5339  3.445151E-02
   42.0192  3.510002E-02
   42.5103  3.585286E-02
   43.0071  3.644873E-02
   43.5096  3.722975E-02
   44.0181  3.786290E-02
   44.5325  3.868519E-02
   45.0529  3.949475E-02
   45.5794  4.039944E-02
   46.1120  4.131011E-02
   46.6509  4.210615E-02
   47.1961  4.290213E-02
   47.7476  4.368848E-02
   48.3056  4.433462E-02
   48.8701  4.468152E-02
   49.4412  4.556601E-02
   50.0190  4.609144E-02
   50.6035  4.627938E-02
   51.1948  4.646805E-02
   51.7931  4.665742E-02
   52.3983  4.699699E-02
   53.0107  4.752710E-02
   53.6302  4.822978E-02
   54.2569  4.914183E-02
   54.8909  4.974916E-02
   55.5324  5.066561E-02
   56.1814  5.165423E-02
   56.8379  5.291584E-02
   57.5021  5.401966E-02
   58.1741  5.503057E-02
   58.8539  5.621830E-02
   59.5417  5.724962E-02
   60.2375  5.808569E-02
   60.9414  5.892688E-02
   61.6536  5.977577E-02
   62.3741  6.031328E-02
   63.1030  6.115688E-02
   63.8404  6.168161E-02
   64.5864  6.240378E-02
   65.3412  6.293312E-02
   66.1048  6.378555E-02
   66.8773  6.441235E-02
   67.6588  6.516653E-02
   68.4495  6.599265E-02
   69.2494  6.687626E-02
   70.0586  6.818343E-02
   70.8773  6.910775E-02
   71.7056  6.990474E-02
   72.5436  7.071114E-02
   73.3913  7.156219E-02
   74.2490  7.233232E-02
   75.1166  7.306777E-02
   75.9944  7.366878E-02
   76.8825  7.420161E-02
   77.7810  7.471718E-02
   78.6899  7.518931E-02
   79.6095  7.570336E-02
   80.5398  7.612506E-02
   81.4810  7.657098E-02
   82.4332  7.713291E-02
   83.3965  7.773482E-02
   84.3711  7.855064E-02
   85.3571  7.941338E-02
   86.3545  8.028670E-02
   87.3637  8.128031E-02
   88.3846  8.230887E-02
   89.4175  8.336456E-02
   90.4624  8.444288E-02
   91.5196  8.553837E-02
   92.5891  8.664864E-02
   93.6711  8.775778E-02
   94.7657  8.880576E-02
   95.8732  8.986149E-02
   96.9935  9.092879E-02
   98.1270  9.176103E-02
   99.2737  9.295985E-02
   100.434  9.411781E-02
   101.608  9.527800E-02
   102.795  9.633832E-02
   103.996  9.728398E-02
   105.211  9.881300E-02
   106.441  9.989536E-02
   107.685  9.957335E-02
   108.943  9.737340E-02
   110.216  9.112433E-02
   111.504  7.651097E-02
   112.807  7.170634E-03
   114.126  4.761298E-03
   115.459  5.240466E-03
   116.809  4.800508E-03
   118.174  3.524840E-03
   119.555  3.579139E-03
   120.952  3.458692E-03
   122.365  3.175276E-03
   123.795  3.112479E-03
   125.242  2.756030E-03
   126.705  2.755198E-03
   128.186  3.477408E-03
   129.684  4.541763E-03
   131.200  5.796011E-03
   132.733  6.396682E-03
   134.284  6.496352E-03
   135.853  6.571733E-03
   137.441  6.742119E-03
   139.047  6.948026E-03
   140.672  6.992032E-03
   142.316  6.959690E-03
   143.979  7.028629E-03
   145.661  7.146220E-03
   147.364  7.192024E-03
   149.086  7.179772E-03
   150.828  7.200407E-03
   152.590  7.237375E-03
   154.374  7.221757E-03
   156.178  7.134888E-03
   158.003  7.055645E-03
   159.849  7.117993E-03
   161.717  7.291395E-03
   163.607  7.708026E-03
   165.519  8.263309E-03
   167.453  8.826403E-03
   169.410  9.360290E-03
   171.390  9.677670E-03
   173.393  1.004179E-02
   175.419  1.038106E-02
   177.469  1.087516E-02
   179.543  1.139100E-02
   181.641  1.162466E-02
   183.764  1.190371E-02
   185.911  1.214106E-02
   188.084  1.241265E-02
   190.282  1.252744E-02
   192.505  1.276109E-02
   194.755  1.310472E-02
   197.031  1.335878E-02
   199.333  1.357359E-02
   201.663  1.384135E-02
   204.019  1.403091E-02
   206.403  1.433087E-02
   208.816  1.473005E-02
   211.256  1.511197E-02
   213.724  1.557228E-02
   216.222  1.596498E-02
   218.749  1.643638E-02
   221.305  1.682130E-02
   223.891  1.733323E-02
   226.508  1.773549E-02
   229.155  1.848442E-02
   231.833  1.926127E-02
   234.542  2.004540E-02
   237.283  2.065145E-02
   240.056  2.121177E-02
   242.861  2.182860E-02
   245.699  2.246343E-02
   248.570  2.277502E-02
   251.475  2.322187E-02
   254.414  2.394600E-02
   257.387  2.469670E-02
   260.395  2.547086E-02
   263.438  2.626953E-02
   266.516  2.709319E-02
   269.631  2.794265E-02
   272.782  2.881875E-02
   275.969  2.972242E-02
   279.194  3.065431E-02
   282.457  3.161538E-02
   285.758  3.260658E-02
   289.097  3.362880E-02
   292.476  3.468321E-02
   295.894  3.577076E-02
   299.351  3.689222E-02
   302.850  3.804902E-02
   306.389  3.924199E-02
   309.969  4.047214E-02
   313.592  4.174123E-02
   317.256  4.303423E-02
   320.964  4.435834E-02
   324.714  4.572344E-02
   328.509  4.713010E-02
   332.348  4.858018E-02
   336.232  5.007499E-02
   340.161  5.161571E-02
   344.136  5.320399E-02
   348.158  5.484109E-02
   352.226  5.652842E-02
   356.342  5.826768E-02
   360.507  6.006064E-02
   364.720  6.190875E-02
   368.982  6.381349E-02
   373.294  6.577714E-02
   377.656  6.780113E-02
   382.069  6.988735E-02
   386.534  7.203777E-02
   391.051  7.432213E-02
   395.621  7.671019E-02
   400.244  7.917503E-02
   404.922  8.179352E-02
   409.654  8.450442E-02
   414.441  8.730520E-02
   419.284  9.019876E-02
   424.184  9.318845E-02
   429.141  9.627712E-02
   434.156  9.946796E-02
   439.229  0.102765
   444.362  0.106171
   449.555  0.109690
   454.808  0.113325
   460.123  0.117081
   465.500  0.120962
   470.940  0.124971
   476.444  0.129113
   482.011  0.133392
   487.644  0.137813
   493.343  0.142381
   499.108  0.147100
   504.941  0.151975
   510.841  0.157013
   516.811  0.162216
   522.851  0.167593
   528.961  0.173148
   535.142  0.178886
   541.396  0.184816
   547.723  0.190941
   554.123  0.197269
   560.599  0.203807
   567.150  0.210720
   573.778  0.217880
   580.483  0.225283
   587.266  0.232937
   594.129  0.240851
   601.072  0.249035
   608.096  0.257496
   615.203  0.266245
   622.392  0.275291
   629.665  0.284645
   637.024  0.294316
   644.468  0.304845
   651.999  0.315826
   659.618  0.327201
   667.327  0.338987
   675.125  0.350705
   683.015  0.362400
   690.996  0.374028
   699.071  0.386031
   707.241  0.398920
   715.506  0.412593
   723.867  0.426738
   732.326  0.441591
   740.884  0.457009
   749.542  0.472965
   758.301  0.489480
   767.163  0.506571
   776.128  0.524258
   785.198  0.542562
   794.374  0.561507
   803.657  0.581111
   813.048  0.601399
   822.550  0.622397
   832.162  0.644130
   841.887  0.666622
   851.725  0.689895
   861.678  0.713982
   871.748  0.738911
   881.935  0.764670
   892.242  0.791213
   902.668  0.818675
   913.217  0.847092
   923.889  0.876499
   934.686  0.906918
   945.608  0.938741
   956.659  0.971807
   967.838  1.00604
   979.148  1.04147
   990.591  1.07815
   1002.17  1.11613
   1013.88  1.15544
   1025.73  1.19613
   1037.71  1.23826
   1049.84  1.28187
   1062.11  1.32704
   1074.52  1.37378
   1087.08  1.42216
   1099.78  1.47225
   1112.63  1.52410
   1125.64  1.57777
   1138.79  1.63335
   1152.10  1.69089
   1165.56  1.75045
   1179.18  1.81209
   1192.96  1.87590
   1206.90  1.94197
   1221.01  2.01037
   1235.28  2.08118
   1249.71  2.15447
   1264.31  2.23036
   1279.09  2.30891
   1294.04  2.39022
   1309.16  2.47441
   1324.46  2.56155
   1339.94  2.65177
   1355.59  2.74516
   1371.44  2.84191
   1387.46  2.94209
   1403.68  3.04582
   1420.08  3.15318
   1436.68  3.26432
   1453.46  3.37938
   1470.45  3.49852
   1487.63  3.62181
   1505.02  3.74947
   1522.61  3.88252
   1540.40  4.02236
   1558.40  4.16719
   1576.61  4.31724
   1595.04  4.47271
   1613.68  4.63375
   1632.53  4.80059
   1651.61  4.97343
   1670.91  5.15251
   1690.44  5.33806
   1710.19  5.53026
   1730.18  5.72936
   1750.40  5.93563
   1770.85  6.14933
   1791.55  6.37072
   1812.48  6.60006
   1833.66  6.83764
   1855.09  7.08376
   1876.77  7.33874
   1898.70  7.60290
   1920.89  7.87655
   1943.34  8.16003
   1966.05  8.45369
   1989.02  8.75795
   2012.27  9.07316
   2035.78  9.40273
   2059.57  9.74812
   2083.64  10.1062
   2107.99  10.4775
   2132.62  10.8623
   2157.55  11.2613
   2182.76  11.6748
   2208.27  12.1036
   2234.07  12.5480
   2260.18  13.0088
   2286.59  13.4865
   2313.31  13.9817
   2340.35  14.4949
   2367.70  15.0270
   2395.37  15.5786
   2423.36  16.1504
   2451.68  16.7431
   2480.33  17.3575
   2509.31  17.9944
   2538.64  18.6546
   2568.30  19.3389
   2598.32  20.0482
   2628.68  20.7836
   2659.40  21.5458
   2690.48  22.3358
   2721.92  23.1547
   2753.73  24.0036
   2785.91  24.8835
   2818.46  25.7954
   2851.40  26.7405
   2884.72  27.7202
   2918.43  28.7355
   2952.54  29.7878
   2987.04  30.8785
   3021.95  32.0092
   3057.26  33.2018
   3092.99  34.4404
   3129.14  35.7249
   3165.70  37.0572
   3202.70  38.4388
   3240.12  39.8713
   3277.99  41.3569
   3316.29  42.8976
   3355.05  44.4952
   3394.26  46.1521
   3433.92  47.8702
   3474.05  49.6516
   3514.65  51.4989
   3555.72  53.4142
   3597.27  55.4000
   3639.31  57.4589
   3681.84  59.5935
   3724.87  61.8067
   3768.40  64.1011
   3812.43  66.4797
   3856.99  68.9453
   3902.06  71.5011
   3947.66  74.1507
   3993.79  76.8969
   4040.46  79.7443
   4087.68  82.6957
   4135.45  85.7794
   4183.77  88.9882
   4232.67  92.3148
   4282.13  95.7639
   4332.17  99.3395
   4382.80  103.046
   4434.01  106.888
   4485.83  110.871
   4538.25  114.999
   4591.29  119.277
   4644.94  123.711
   4699.22  128.305
   4754.14  133.066
   4809.69  137.999
   4865.90  143.110
   4922.76  148.405
   4980.29  153.891
   5038.49  159.573
   5097.37  165.459
   5156.94  171.555
   5217.20  177.867
   5278.17  184.461
   5339.85  191.293
   5402.25  198.367
   5465.38  205.694
   5529.25  213.278
   5593.87  221.130
   5659.24  229.257
   5725.37  237.670
   5792.28  246.374
   5859.97  255.381
   5928.45  264.700
   5997.73  274.339
   6067.82  284.311
   6138.73  294.623
   6210.46  305.285
   6283.04  316.307
   6356.46  327.732
   6430.75  339.589
   6505.90  351.842
   6581.92  364.502
   6658.84  377.581
   6736.66  391.087
   6815.38  405.033
   6895.02  419.429
   6975.60  434.287
   7057.12  449.615
   7139.59  465.429
   7223.02  481.736
   7307.43  498.545
   7392.82  515.870
   7479.22  533.720
   7566.62  552.103
   7655.04  571.033
   7744.50  590.520
   7835.00  610.569
   7926.56  631.189
   8019.19  652.396
   8112.91  674.225
   8207.71  696.657
   8303.63  719.693
   8400.67  743.520
   8498.84  767.995
   8598.15  793.105
   8698.63  818.857
   8800.29  845.255
   8903.13  872.302
   9007.17  900.000
   9112.43  928.344
   9218.91  957.339
   9326.65  986.985
   9435.64  1017.28
   9545.90  1048.21
   9657.46  1079.77
   9770.32  1111.97
   9884.49  1144.78
   10000.0  1178.21
