 Be Density=20.05, Angle=90.deg
 Photon Energy (eV), Atten Length (microns)
   30.0000  1.079810E-02
   30.3927  1.130860E-02
   30.7905  1.184318E-02
   31.1935  1.240305E-02
   31.6019  1.298942E-02
   32.0155  1.360349E-02
   32.4346  1.424659E-02
   32.8591  1.492011E-02
   33.2892  1.562548E-02
   33.7250  1.636419E-02
   34.1664  1.704136E-02
   34.6136  1.764997E-02
   35.0667  1.821706E-02
   35.5257  1.880232E-02
   35.9907  1.940646E-02
   36.4618  2.003001E-02
   36.9391  2.067357E-02
   37.4226  2.133780E-02
   37.9125  2.202346E-02
   38.4087  2.273103E-02
   38.9115  2.345421E-02
   39.4208  2.380412E-02
   39.9368  2.427783E-02
   40.4596  2.475096E-02
   40.9891  2.521845E-02
   41.5257  2.584851E-02
   42.0692  2.639523E-02
   42.6199  2.700307E-02
   43.1778  2.758101E-02
   43.7429  2.818464E-02
   44.3155  2.874939E-02
   44.8956  2.942096E-02
   45.4832  3.019568E-02
   46.0786  3.097038E-02
   46.6817  3.163914E-02
   47.2928  3.230837E-02
   47.9118  3.294032E-02
   48.5390  3.338527E-02
   49.1743  3.383401E-02
   49.8180  3.450518E-02
   50.4701  3.470513E-02
   51.1307  3.486355E-02
   51.8000  3.502262E-02
   52.4780  3.532721E-02
   53.1649  3.577410E-02
   53.8608  3.647767E-02
   54.5658  3.713615E-02
   55.2801  3.777247E-02
   56.0037  3.851736E-02
   56.7367  3.957182E-02
   57.4794  4.052736E-02
   58.2318  4.139321E-02
   58.9940  4.236738E-02
   59.7662  4.317379E-02
   60.5485  4.387517E-02
   61.3411  4.466119E-02
   62.1440  4.514234E-02
   62.9574  4.577595E-02
   63.7815  4.628051E-02
   64.6164  4.685598E-02
   65.4622  4.732810E-02
   66.3190  4.800792E-02
   67.1871  4.856514E-02
   68.0666  4.921688E-02
   68.9575  4.995511E-02
   69.8601  5.091956E-02
   70.7746  5.179796E-02
   71.7010  5.246706E-02
   72.6395  5.317590E-02
   73.5903  5.381645E-02
   74.5536  5.451271E-02
   75.5294  5.509681E-02
   76.5181  5.550625E-02
   77.5197  5.593361E-02
   78.5344  5.634380E-02
   79.5623  5.680674E-02
   80.6038  5.716105E-02
   81.6588  5.753140E-02
   82.7277  5.803416E-02
   83.8106  5.858864E-02
   84.9076  5.931526E-02
   86.0190  6.003791E-02
   87.1450  6.084719E-02
   88.2857  6.170534E-02
   89.4413  6.259172E-02
   90.6120  6.349885E-02
   91.7981  6.442183E-02
   92.9997  6.535864E-02
   94.2170  6.626312E-02
   95.4502  6.714762E-02
   96.6996  6.804077E-02
   97.9654  6.881387E-02
   99.2477  6.975112E-02
   100.547  7.068235E-02
   101.863  7.173021E-02
   103.196  7.257260E-02
   104.547  7.352922E-02
   105.916  7.469001E-02
   107.302  7.487087E-02
   108.706  7.341947E-02
   110.129  6.893507E-02
   111.571  5.480460E-02
   113.031  3.813941E-03
   114.511  3.934334E-03
   116.010  3.771944E-03
   117.528  3.084123E-03
   119.067  2.695078E-03
   120.625  2.576143E-03
   122.204  2.375900E-03
   123.804  2.334028E-03
   125.424  2.031799E-03
   127.066  2.138231E-03
   128.729  2.866837E-03
   130.414  3.833271E-03
   132.121  4.680758E-03
   133.851  4.869433E-03
   135.603  4.928825E-03
   137.378  5.053864E-03
   139.176  5.223216E-03
   140.998  5.235456E-03
   142.843  5.232769E-03
   144.713  5.312112E-03
   146.607  5.404402E-03
   148.526  5.381387E-03
   150.470  5.388134E-03
   152.440  5.435634E-03
   154.435  5.419582E-03
   156.457  5.345634E-03
   158.505  5.309949E-03
   160.579  5.377993E-03
   162.681  5.603268E-03
   164.811  6.047899E-03
   166.968  6.520963E-03
   169.154  6.976863E-03
   171.368  7.262204E-03
   173.611  7.573504E-03
   175.883  7.875150E-03
   178.185  8.349407E-03
   180.518  8.657934E-03
   182.881  8.863314E-03
   185.275  9.062218E-03
   187.700  9.270607E-03
   190.157  9.392363E-03
   192.646  9.588376E-03
   195.167  9.859998E-03
   197.722  1.009334E-02
   200.310  1.028656E-02
   202.932  1.046489E-02
   205.588  1.067274E-02
   208.279  1.098804E-02
   211.006  1.130714E-02
   213.768  1.169394E-02
   216.566  1.202798E-02
   219.400  1.242698E-02
   222.272  1.276460E-02
   225.182  1.310946E-02
   228.129  1.362307E-02
   231.115  1.422699E-02
   234.140  1.495738E-02
   237.205  1.548189E-02
   240.310  1.598523E-02
   243.456  1.646317E-02
   246.642  1.693675E-02
   249.871  1.716700E-02
   253.141  1.773596E-02
   256.455  1.835954E-02
   259.812  1.900489E-02
   263.213  1.967314E-02
   266.658  2.036486E-02
   270.148  2.108087E-02
   273.685  2.182209E-02
   277.267  2.258941E-02
   280.896  2.338362E-02
   284.573  2.420573E-02
   288.298  2.505671E-02
   292.072  2.593770E-02
   295.895  2.684975E-02
   299.768  2.779371E-02
   303.692  2.877104E-02
   307.667  2.978253E-02
   311.694  3.082962E-02
   315.774  3.190929E-02
   319.907  3.301017E-02
   324.095  3.414933E-02
   328.337  3.532746E-02
   332.635  3.654631E-02
   336.989  3.780729E-02
   341.400  3.911174E-02
   345.868  4.046132E-02
   350.396  4.185735E-02
   354.982  4.330150E-02
   359.629  4.479558E-02
   364.336  4.634130E-02
   369.105  4.794009E-02
   373.936  4.959430E-02
   378.831  5.130551E-02
   383.790  5.307576E-02
   388.813  5.492137E-02
   393.903  5.690039E-02
   399.059  5.895072E-02
   404.282  6.112242E-02
   409.574  6.339443E-02
   414.935  6.575078E-02
   420.367  6.819481E-02
   425.869  7.072993E-02
   431.443  7.335894E-02
   437.091  7.608572E-02
   442.812  7.891387E-02
   448.608  8.184727E-02
   454.480  8.488958E-02
   460.429  8.804501E-02
   466.456  9.131781E-02
   472.562  9.471218E-02
   478.747  9.823284E-02
   485.014  0.101884
   491.363  0.105671
   497.794  0.109599
   504.310  0.113673
   510.911  0.117899
   517.599  0.122281
   524.374  0.126826
   531.238  0.131540
   538.191  0.136430
   545.236  0.141502
   552.373  0.146761
   559.603  0.152216
   566.928  0.157988
   574.349  0.164009
   581.867  0.170259
   589.483  0.176747
   597.199  0.183482
   605.016  0.190474
   612.936  0.197733
   620.959  0.205268
   629.087  0.213090
   637.321  0.221210
   645.663  0.230112
   654.115  0.239409
   662.677  0.249081
   671.351  0.259020
   680.139  0.268911
   689.041  0.278591
   698.061  0.288617
   707.198  0.299376
   716.455  0.310885
   725.833  0.322852
   735.334  0.335494
   744.959  0.348633
   754.710  0.362286
   764.589  0.376475
   774.597  0.391218
   784.736  0.406539
   795.008  0.422460
   805.414  0.439004
   815.956  0.456195
   826.637  0.474061
   837.457  0.492629
   848.419  0.511919
   859.524  0.531967
   870.775  0.552799
   882.173  0.574414
   893.720  0.596779
   905.419  0.620010
   917.270  0.644151
   929.277  0.669229
   941.441  0.695404
   953.764  0.722879
   966.248  0.751439
   978.896  0.781123
   991.709  0.811983
   1004.69  0.844063
   1017.84  0.877405
   1031.16  0.912068
   1044.66  0.948100
   1058.34  0.985563
   1072.19  1.02451
   1086.22  1.06498
   1100.44  1.10705
   1114.85  1.15077
   1129.44  1.19624
   1144.22  1.24350
   1159.20  1.29263
   1174.37  1.34370
   1189.74  1.39677
   1205.32  1.45194
   1221.09  1.50931
   1237.08  1.56893
   1253.27  1.63091
   1269.68  1.69534
   1286.29  1.76231
   1303.13  1.83193
   1320.19  1.90429
   1337.47  1.97952
   1354.98  2.05772
   1372.71  2.13906
   1390.68  2.22365
   1408.88  2.31157
   1427.33  2.40296
   1446.01  2.49795
   1464.94  2.59673
   1484.11  2.69939
   1503.54  2.80610
   1523.22  2.91778
   1543.16  3.03567
   1563.36  3.15827
   1583.82  3.28584
   1604.55  3.41856
   1625.55  3.55662
   1646.83  3.70026
   1668.39  3.84970
   1690.23  4.00521
   1712.35  4.16697
   1734.76  4.33524
   1757.47  4.51032
   1780.48  4.69247
   1803.78  4.88196
   1827.39  5.07908
   1851.31  5.28415
   1875.54  5.49751
   1900.09  5.71948
   1924.97  5.95038
   1950.16  6.19059
   1975.69  6.44050
   2001.55  6.70051
   2027.75  6.97157
   2054.29  7.25882
   2081.18  7.55796
   2108.42  7.86937
   2136.02  8.19359
   2163.98  8.53118
   2192.31  8.88262
   2221.00  9.24854
   2250.07  9.62947
   2279.53  10.0261
   2309.36  10.4391
   2339.59  10.8689
   2370.22  11.3165
   2401.24  11.7825
   2432.67  12.2676
   2464.51  12.7726
   2496.77  13.2983
   2529.46  13.8457
   2562.56  14.4154
   2596.11  15.0085
   2630.09  15.6260
   2664.52  16.2689
   2699.39  16.9380
   2734.73  17.6346
   2770.52  18.3598
   2806.79  19.1146
   2843.53  19.9003
   2880.75  20.7181
   2918.46  21.5693
   2956.66  22.4554
   2995.36  23.3776
   3034.57  24.3425
   3074.29  25.3614
   3114.53  26.4225
   3155.29  27.5279
   3196.60  28.6793
   3238.44  29.8784
   3280.83  31.1272
   3323.77  32.4279
   3367.28  33.7828
   3411.35  35.1937
   3456.01  36.6631
   3501.24  38.1934
   3547.07  39.7871
   3593.50  41.4465
   3640.54  43.1743
   3688.19  44.9736
   3736.47  46.8470
   3785.38  48.7976
   3834.93  50.8284
   3885.13  52.9425
   3935.98  55.1434
   3987.50  57.4346
   4039.69  59.8204
   4092.57  62.3039
   4146.14  64.9137
   4200.41  67.6372
   4255.39  70.4731
   4311.09  73.4257
   4367.52  76.4997
   4424.69  79.7002
   4482.61  83.0317
   4541.29  86.4995
   4600.73  90.1091
   4660.95  93.8660
   4721.96  97.7751
   4783.77  101.843
   4846.39  106.076
   4909.82  110.480
   4974.09  115.061
   5039.20  119.828
   5105.16  124.785
   5171.98  129.941
   5239.68  135.317
   5308.27  140.943
   5377.75  146.794
   5448.14  152.879
   5519.45  159.204
   5591.70  165.780
   5664.89  172.615
   5739.04  179.718
   5814.17  187.098
   5890.27  194.765
   5967.37  202.728
   6045.48  211.000
   6124.61  219.589
   6204.78  228.506
   6286.00  237.761
   6368.28  247.398
   6451.64  257.432
   6536.09  267.842
   6621.64  278.639
   6708.31  289.833
   6796.12  301.437
   6885.08  313.462
   6975.20  325.919
   7066.50  338.820
   7159.00  352.178
   7252.71  366.001
   7347.64  380.301
   7443.82  395.090
   7541.26  410.379
   7639.97  426.176
   7739.97  442.496
   7841.28  459.346
   7943.92  476.732
   8047.90  494.679
   8153.25  513.205
   8259.97  532.298
   8368.09  552.048
   8477.62  572.464
   8588.59  593.478
   8701.01  615.094
   8814.90  637.316
   8930.29  660.151
   9047.18  683.597
   9165.60  707.652
   9285.58  732.320
   9407.12  757.595
   9530.25  783.474
   9655.00  809.951
   9781.38  837.021
   9909.41  864.672
   10039.1  892.967
   10170.5  922.003
   10303.7  951.620
   10438.5  981.802
   10575.2  1012.53
   10713.6  1043.80
   10853.8  1075.57
   10995.9  1107.85
   11139.8  1140.59
   11285.6  1173.76
   11433.4  1207.37
   11583.0  1241.35
   11734.6  1275.69
   11888.2  1310.35
   12043.8  1345.31
   12201.5  1380.50
   12361.2  1415.94
   12523.0  1451.75
   12686.9  1487.81
   12853.0  1523.97
   13021.2  1560.19
   13191.7  1596.42
   13364.3  1632.62
   13539.3  1668.74
   13716.5  1704.75
   13896.0  1740.59
   14077.9  1776.22
   14262.2  1811.59
   14448.9  1846.67
   14638.0  1881.42
   14829.6  1915.77
   15023.7  1949.91
   15220.4  1985.11
   15419.6  2019.93
   15621.5  2054.34
   15825.9  2088.32
   16033.1  2121.82
   16243.0  2154.82
   16455.6  2187.44
   16671.0  2219.57
   16889.2  2251.11
   17110.2  2282.01
   17334.2  2312.28
   17561.1  2341.89
   17791.0  2370.80
   18023.8  2399.02
   18259.8  2426.53
   18498.8  2453.30
   18740.9  2479.34
   18986.2  2504.63
   19234.8  2529.17
   19486.5  2552.94
   19741.6  2575.96
   20000.0  2598.21
