 Be Density=20.05, Angle=90.deg
 Photon Energy (eV), Atten Length (microns)
   30.0000  1.079810E-02
   30.3506  1.125306E-02
   30.7053  1.172712E-02
   31.0641  1.222119E-02
   31.4271  1.273607E-02
   31.7944  1.327267E-02
   32.1659  1.383183E-02
   32.5418  1.441458E-02
   32.9221  1.502190E-02
   33.3068  1.565481E-02
   33.6960  1.631437E-02
   34.0898  1.692920E-02
   34.4882  1.749480E-02
   34.8912  1.799616E-02
   35.2990  1.851182E-02
   35.7115  1.904228E-02
   36.1288  1.958799E-02
   36.5510  2.014933E-02
   36.9781  2.072672E-02
   37.4103  2.132066E-02
   37.8474  2.193170E-02
   38.2897  2.256016E-02
   38.7372  2.320663E-02
   39.1899  2.368887E-02
   39.6478  2.398980E-02
   40.1112  2.445759E-02
   40.5799  2.484163E-02
   41.0541  2.527063E-02
   41.5339  2.585926E-02
   42.0192  2.634602E-02
   42.5103  2.691110E-02
   43.0071  2.735837E-02
   43.5096  2.794460E-02
   44.0181  2.841984E-02
   44.5325  2.903704E-02
   45.0529  2.964471E-02
   45.5794  3.032377E-02
   46.1120  3.100731E-02
   46.6509  3.160482E-02
   47.1961  3.220228E-02
   47.7476  3.279250E-02
   48.3056  3.327750E-02
   48.8701  3.353788E-02
   49.4412  3.420179E-02
   50.0190  3.459617E-02
   50.6035  3.473723E-02
   51.1948  3.487885E-02
   51.7931  3.502100E-02
   52.3983  3.527587E-02
   53.0107  3.567377E-02
   53.6302  3.620120E-02
   54.2569  3.688579E-02
   54.8909  3.734165E-02
   55.5324  3.802953E-02
   56.1814  3.877159E-02
   56.8379  3.971856E-02
   57.5021  4.054709E-02
   58.1741  4.130586E-02
   58.8539  4.219737E-02
   59.5417  4.297148E-02
   60.2375  4.359904E-02
   60.9414  4.423043E-02
   61.6536  4.486760E-02
   62.3741  4.527106E-02
   63.1030  4.590426E-02
   63.8404  4.629813E-02
   64.5864  4.684019E-02
   65.3412  4.723752E-02
   66.1048  4.787734E-02
   66.8773  4.834782E-02
   67.6588  4.891390E-02
   68.4495  4.953399E-02
   69.2494  5.019723E-02
   70.0586  5.117838E-02
   70.8773  5.187217E-02
   71.7056  5.247040E-02
   72.5436  5.307568E-02
   73.3913  5.371448E-02
   74.2490  5.429253E-02
   75.1166  5.484457E-02
   75.9944  5.529568E-02
   76.8825  5.569563E-02
   77.7810  5.608261E-02
   78.6899  5.643699E-02
   79.6095  5.682283E-02
   80.5398  5.713936E-02
   81.4810  5.747407E-02
   82.4332  5.789586E-02
   83.3965  5.834764E-02
   84.3711  5.895999E-02
   85.3571  5.960757E-02
   86.3545  6.026308E-02
   87.3637  6.100887E-02
   88.3846  6.178093E-02
   89.4175  6.257331E-02
   90.4624  6.338271E-02
   91.5196  6.420498E-02
   92.5891  6.503835E-02
   93.6711  6.587086E-02
   94.7657  6.665748E-02
   95.8732  6.744990E-02
   96.9935  6.825102E-02
   98.1270  6.887569E-02
   99.2737  6.977553E-02
   100.434  7.064469E-02
   101.608  7.151554E-02
   102.795  7.231142E-02
   103.996  7.302122E-02
   105.211  7.416890E-02
   106.441  7.498131E-02
   107.685  7.473961E-02
   108.943  7.308833E-02
   110.216  6.839778E-02
   111.504  5.742902E-02
   112.807  5.382268E-03
   114.126  3.573823E-03
   115.459  3.933487E-03
   116.809  3.603254E-03
   118.174  2.645740E-03
   119.555  2.686497E-03
   120.952  2.596089E-03
   122.365  2.383357E-03
   123.795  2.336222E-03
   125.242  2.068672E-03
   126.705  2.068047E-03
   128.186  2.610138E-03
   129.684  3.409041E-03
   131.200  4.350478E-03
   132.733  4.801340E-03
   134.284  4.876151E-03
   135.853  4.932733E-03
   137.441  5.060625E-03
   139.047  5.215179E-03
   140.672  5.248209E-03
   142.316  5.223933E-03
   143.979  5.275679E-03
   145.661  5.363942E-03
   147.364  5.398323E-03
   149.086  5.389126E-03
   150.828  5.404615E-03
   152.590  5.432363E-03
   154.374  5.420640E-03
   156.178  5.355436E-03
   158.003  5.295957E-03
   159.849  5.342755E-03
   161.717  5.472910E-03
   163.607  5.785633E-03
   165.519  6.202429E-03
   167.453  6.625086E-03
   169.410  7.025820E-03
   171.390  7.264045E-03
   173.393  7.537350E-03
   175.419  7.792011E-03
   177.469  8.162878E-03
   179.543  8.550068E-03
   181.641  8.725450E-03
   183.764  8.934911E-03
   185.911  9.113063E-03
   188.084  9.316917E-03
   190.282  9.403081E-03
   192.505  9.578459E-03
   194.755  9.836382E-03
   197.031  1.002708E-02
   199.333  1.018831E-02
   201.663  1.038930E-02
   204.019  1.053158E-02
   206.403  1.075673E-02
   208.816  1.105635E-02
   211.256  1.134302E-02
   213.724  1.168853E-02
   216.222  1.198329E-02
   218.749  1.233712E-02
   221.305  1.262604E-02
   223.891  1.301030E-02
   226.508  1.331224E-02
   229.155  1.387438E-02
   231.833  1.445748E-02
   234.542  1.504604E-02
   237.283  1.550095E-02
   240.056  1.592152E-02
   242.861  1.638451E-02
   245.699  1.686102E-02
   248.570  1.709490E-02
   251.475  1.743030E-02
   254.414  1.797383E-02
   257.387  1.853731E-02
   260.395  1.911839E-02
   263.438  1.971787E-02
   266.516  2.033611E-02
   269.631  2.097371E-02
   272.782  2.163131E-02
   275.969  2.230960E-02
   279.194  2.300908E-02
   282.457  2.373046E-02
   285.758  2.447445E-02
   289.097  2.524173E-02
   292.476  2.603317E-02
   295.894  2.684948E-02
   299.351  2.769125E-02
   302.850  2.855954E-02
   306.389  2.945498E-02
   309.969  3.037833E-02
   313.592  3.133090E-02
   317.256  3.230143E-02
   320.964  3.329531E-02
   324.714  3.431996E-02
   328.509  3.537579E-02
   332.348  3.646421E-02
   336.232  3.758622E-02
   340.161  3.874268E-02
   344.136  3.993484E-02
   348.158  4.116364E-02
   352.226  4.243015E-02
   356.342  4.373564E-02
   360.507  4.508144E-02
   364.720  4.646863E-02
   368.982  4.789831E-02
   373.294  4.937222E-02
   377.656  5.089143E-02
   382.069  5.245734E-02
   386.534  5.407145E-02
   391.051  5.578607E-02
   395.621  5.757856E-02
   400.244  5.942867E-02
   404.922  6.139410E-02
   409.654  6.342889E-02
   414.441  6.553115E-02
   419.284  6.770306E-02
   424.184  6.994711E-02
   429.141  7.226545E-02
   434.156  7.466052E-02
   439.229  7.713502E-02
   444.362  7.969157E-02
   449.555  8.233293E-02
   454.808  8.506164E-02
   460.123  8.788091E-02
   465.500  9.079370E-02
   470.940  9.380294E-02
   476.444  9.691199E-02
   482.011  0.100124
   487.644  0.103442
   493.343  0.106871
   499.108  0.110413
   504.941  0.114073
   510.841  0.117853
   516.811  0.121759
   522.851  0.125795
   528.961  0.129964
   535.142  0.134272
   541.396  0.138722
   547.723  0.143320
   554.123  0.148070
   560.599  0.152977
   567.150  0.158166
   573.778  0.163540
   580.483  0.169097
   587.266  0.174842
   594.129  0.180783
   601.072  0.186925
   608.096  0.193276
   615.203  0.199843
   622.392  0.206633
   629.665  0.213654
   637.024  0.220913
   644.468  0.228816
   651.999  0.237058
   659.618  0.245597
   667.327  0.254443
   675.125  0.263238
   683.015  0.272017
   690.996  0.280745
   699.071  0.289754
   707.241  0.299429
   715.506  0.309692
   723.867  0.320309
   732.326  0.331457
   740.884  0.343030
   749.542  0.355007
   758.301  0.367403
   767.163  0.380231
   776.128  0.393507
   785.198  0.407246
   794.374  0.421466
   803.657  0.436181
   813.048  0.451409
   822.550  0.467170
   832.162  0.483483
   841.887  0.500366
   851.725  0.517834
   861.678  0.535914
   871.748  0.554625
   881.935  0.573960
   892.242  0.593884
   902.668  0.614496
   913.217  0.635826
   923.889  0.657899
   934.686  0.680732
   945.608  0.704618
   956.659  0.729437
   967.838  0.755130
   979.148  0.781724
   990.591  0.809259
   1002.17  0.837765
   1013.88  0.867268
   1025.73  0.897814
   1037.71  0.929437
   1049.84  0.962173
   1062.11  0.996073
   1074.52  1.03116
   1087.08  1.06747
   1099.78  1.10507
   1112.63  1.14398
   1125.64  1.18427
   1138.79  1.22599
   1152.10  1.26918
   1165.56  1.31388
   1179.18  1.36016
   1192.96  1.40805
   1206.90  1.45764
   1221.01  1.50898
   1235.28  1.56213
   1249.71  1.61714
   1264.31  1.67410
   1279.09  1.73306
   1294.04  1.79410
   1309.16  1.85729
   1324.46  1.92270
   1339.94  1.99041
   1355.59  2.06052
   1371.44  2.13313
   1387.46  2.20833
   1403.68  2.28619
   1420.08  2.36677
   1436.68  2.45019
   1453.46  2.53656
   1470.45  2.62598
   1487.63  2.71853
   1505.02  2.81434
   1522.61  2.91421
   1540.40  3.01918
   1558.40  3.12789
   1576.61  3.24052
   1595.04  3.35721
   1613.68  3.47809
   1632.53  3.60331
   1651.61  3.73305
   1670.91  3.86746
   1690.44  4.00674
   1710.19  4.15101
   1730.18  4.30045
   1750.40  4.45528
   1770.85  4.61568
   1791.55  4.78185
   1812.48  4.95400
   1833.66  5.13232
   1855.09  5.31706
   1876.77  5.50845
   1898.70  5.70673
   1920.89  5.91213
   1943.34  6.12490
   1966.05  6.34533
   1989.02  6.57371
   2012.27  6.81030
   2035.78  7.05768
   2059.57  7.31693
   2083.64  7.58574
   2107.99  7.86436
   2132.62  8.15321
   2157.55  8.45269
   2182.76  8.76311
   2208.27  9.08493
   2234.07  9.41854
   2260.18  9.76435
   2286.59  10.1229
   2313.31  10.4946
   2340.35  10.8798
   2367.70  11.2793
   2395.37  11.6933
   2423.36  12.1224
   2451.68  12.5673
   2480.33  13.0285
   2509.31  13.5066
   2538.64  14.0021
   2568.30  14.5157
   2598.32  15.0482
   2628.68  15.6001
   2659.40  16.1723
   2690.48  16.7652
   2721.92  17.3799
   2753.73  18.0171
   2785.91  18.6775
   2818.46  19.3620
   2851.40  20.0714
   2884.72  20.8068
   2918.43  21.5688
   2952.54  22.3587
   2987.04  23.1774
   3021.95  24.0260
   3057.26  24.9212
   3092.99  25.8509
   3129.14  26.8151
   3165.70  27.8151
   3202.70  28.8521
   3240.12  29.9274
   3277.99  31.0425
   3316.29  32.1989
   3355.05  33.3981
   3394.26  34.6417
   3433.92  35.9313
   3474.05  37.2684
   3514.65  38.6550
   3555.72  40.0926
   3597.27  41.5832
   3639.31  43.1285
   3681.84  44.7308
   3724.87  46.3920
   3768.40  48.1142
   3812.43  49.8996
   3856.99  51.7502
   3902.06  53.6686
   3947.66  55.6574
   3993.79  57.7187
   4040.46  59.8559
   4087.68  62.0713
   4135.45  64.3859
   4183.77  66.7944
   4232.67  69.2914
   4282.13  71.8802
   4332.17  74.5640
   4382.80  77.3462
   4434.01  80.2302
   4485.83  83.2196
   4538.25  86.3179
   4591.29  89.5291
   4644.94  92.8573
   4699.22  96.3058
   4754.14  99.8793
   4809.69  103.582
   4865.90  107.418
   4922.76  111.393
   4980.29  115.510
   5038.49  119.775
   5097.37  124.193
   5156.94  128.769
   5217.20  133.507
   5278.17  138.456
   5339.85  143.584
   5402.25  148.894
   5465.38  154.393
   5529.25  160.086
   5593.87  165.980
   5659.24  172.080
   5725.37  178.395
   5792.28  184.928
   5859.97  191.689
   5928.45  198.684
   5997.73  205.918
   6067.82  213.403
   6138.73  221.144
   6210.46  229.146
   6283.04  237.420
   6356.46  245.995
   6430.75  254.895
   6505.90  264.092
   6581.92  273.595
   6658.84  283.411
   6736.66  293.549
   6815.38  304.017
   6895.02  314.823
   6975.60  325.975
   7057.12  337.481
   7139.59  349.351
   7223.02  361.591
   7307.43  374.207
   7392.82  387.211
   7479.22  400.609
   7566.62  414.408
   7655.04  428.616
   7744.50  443.243
   7835.00  458.292
   7926.56  473.770
   8019.19  489.688
   8112.91  506.072
   8207.71  522.910
   8303.63  540.201
   8400.67  558.085
   8498.84  576.456
   8598.15  595.304
   8698.63  614.633
   8800.29  634.447
   8903.13  654.749
   9007.17  675.538
   9112.43  696.814
   9218.91  718.577
   9326.65  740.830
   9435.64  763.565
   9545.90  786.783
   9657.46  810.475
   9770.32  834.641
   9884.49  859.272
   10000.0  884.363
