 Be Density=0.448, Angle=90.deg
 Photon Energy (eV), Atten Length (microns)
   30.0000  0.483215
   30.3927  0.506060
   30.7905  0.529982
   31.1935  0.555037
   31.6019  0.581276
   32.0155  0.608756
   32.4346  0.637535
   32.8591  0.667675
   33.2892  0.699240
   33.7250  0.732297
   34.1664  0.762601
   34.6136  0.789836
   35.0667  0.815213
   35.5257  0.841404
   35.9907  0.868439
   36.4618  0.896343
   36.9391  0.925142
   37.4226  0.954867
   37.9125  0.985550
   38.4087  1.01721
   38.9115  1.04958
   39.4208  1.06523
   39.9368  1.08643
   40.4596  1.10761
   40.9891  1.12853
   41.5257  1.15672
   42.0692  1.18119
   42.6199  1.20839
   43.1778  1.23425
   43.7429  1.26126
   44.3155  1.28654
   44.8956  1.31659
   45.4832  1.35126
   46.0786  1.38592
   46.6817  1.41585
   47.2928  1.44580
   47.9118  1.47408
   48.5390  1.49399
   49.1743  1.51407
   49.8180  1.54411
   50.4701  1.55305
   51.1307  1.56014
   51.8000  1.56726
   52.4780  1.58089
   53.1649  1.60089
   53.8608  1.63238
   54.5658  1.66184
   55.2801  1.69032
   56.0037  1.72365
   56.7367  1.77084
   57.4794  1.81360
   58.2318  1.85235
   58.9940  1.89594
   59.7662  1.93203
   60.5485  1.96341
   61.3411  1.99859
   62.1440  2.02012
   62.9574  2.04847
   63.7815  2.07105
   64.6164  2.09680
   65.4622  2.11793
   66.3190  2.14835
   67.1871  2.17329
   68.0666  2.20246
   68.9575  2.23549
   69.8601  2.27865
   70.7746  2.31796
   71.7010  2.34790
   72.6395  2.37962
   73.5903  2.40829
   74.5536  2.43944
   75.5294  2.46558
   76.5181  2.48390
   77.5197  2.50303
   78.5344  2.52138
   79.5623  2.54210
   80.6038  2.55796
   81.6588  2.57453
   82.7277  2.59703
   83.8106  2.62184
   84.9076  2.65436
   86.0190  2.68670
   87.1450  2.72291
   88.2857  2.76131
   89.4413  2.80098
   90.6120  2.84157
   91.7981  2.88288
   92.9997  2.92480
   94.2170  2.96527
   95.4502  3.00486
   96.6996  3.04482
   97.9654  3.07942
   99.2477  3.12136
   100.547  3.16303
   101.863  3.20993
   103.196  3.24762
   104.547  3.29043
   105.916  3.34238
   107.302  3.35047
   108.706  3.28552
   110.129  3.08484
   111.571  2.45251
   113.031  0.170674
   114.511  0.176061
   116.010  0.168794
   117.528  0.138014
   119.067  0.120605
   120.625  0.115282
   122.204  0.106322
   123.804  0.104448
   125.424  9.092299E-02
   127.066  9.568585E-02
   128.729  0.128291
   130.414  0.171539
   132.121  0.209464
   133.851  0.217907
   135.603  0.220565
   137.378  0.226160
   139.176  0.233739
   140.998  0.234287
   142.843  0.234166
   144.713  0.237717
   146.607  0.241847
   148.526  0.240817
   150.470  0.241119
   152.440  0.243245
   154.435  0.242526
   156.457  0.239217
   158.505  0.237620
   160.579  0.240665
   162.681  0.250746
   164.811  0.270643
   166.968  0.291813
   169.154  0.312215
   171.368  0.324984
   173.611  0.338914
   175.883  0.352413
   178.185  0.373636
   180.518  0.387443
   182.881  0.396633
   185.275  0.405534
   187.700  0.414860
   190.157  0.420308
   192.646  0.429080
   195.167  0.441235
   197.722  0.451677
   200.310  0.460324
   202.932  0.468304
   205.588  0.477605
   208.279  0.491715
   211.006  0.505994
   213.768  0.523304
   216.566  0.538252
   219.400  0.556107
   222.272  0.571216
   225.182  0.586648
   228.129  0.609633
   231.115  0.636658
   234.140  0.669343
   237.205  0.692815
   240.310  0.715339
   243.456  0.736727
   246.642  0.757920
   249.871  0.768223
   253.141  0.793684
   256.455  0.821589
   259.812  0.850469
   263.213  0.880373
   266.658  0.911327
   270.148  0.943369
   273.685  0.976539
   277.267  1.01088
   280.896  1.04642
   284.573  1.08321
   288.298  1.12129
   292.072  1.16071
   295.895  1.20153
   299.768  1.24377
   303.692  1.28750
   307.667  1.33277
   311.694  1.37963
   315.774  1.42794
   319.907  1.47720
   324.095  1.52818
   328.337  1.58090
   332.635  1.63545
   336.989  1.69188
   341.400  1.75025
   345.868  1.81064
   350.396  1.87312
   354.982  1.93774
   359.629  2.00460
   364.336  2.07377
   369.105  2.14532
   373.936  2.21934
   378.831  2.29592
   383.790  2.37514
   388.813  2.45773
   393.903  2.54629
   399.059  2.63804
   404.282  2.73523
   409.574  2.83690
   414.935  2.94235
   420.367  3.05172
   425.869  3.16516
   431.443  3.28281
   437.091  3.40484
   442.812  3.53140
   448.608  3.66267
   454.480  3.79881
   460.429  3.94001
   466.456  4.08647
   472.562  4.23837
   478.747  4.39592
   485.014  4.55931
   491.363  4.72879
   497.794  4.90457
   504.310  5.08688
   510.911  5.27597
   517.599  5.47207
   524.374  5.67548
   531.238  5.88644
   538.191  6.10525
   545.236  6.33220
   552.373  6.56757
   559.603  6.81167
   566.928  7.06998
   574.349  7.33940
   581.867  7.61909
   589.483  7.90941
   597.199  8.21083
   605.016  8.52372
   612.936  8.84854
   620.959  9.18573
   629.087  9.53577
   637.321  9.89914
   645.663  10.2975
   654.115  10.7135
   662.677  11.1464
   671.351  11.5911
   680.139  12.0338
   689.041  12.4670
   698.061  12.9156
   707.198  13.3971
   716.455  13.9121
   725.833  14.4476
   735.334  15.0133
   744.959  15.6013
   754.710  16.2123
   764.589  16.8472
   774.597  17.5070
   784.736  18.1926
   795.008  18.9051
   805.414  19.6454
   815.956  20.4147
   826.637  21.2142
   837.457  22.0451
   848.419  22.9084
   859.524  23.8055
   870.775  24.7377
   882.173  25.7050
   893.720  26.7059
   905.419  27.7455
   917.270  28.8258
   929.277  29.9480
   941.441  31.1193
   953.764  32.3488
   966.248  33.6269
   978.896  34.9552
   991.709  36.3363
   1004.69  37.7718
   1017.84  39.2639
   1031.16  40.8151
   1044.66  42.4275
   1058.34  44.1040
   1072.19  45.8466
   1086.22  47.6578
   1100.44  49.5404
   1114.85  51.4971
   1129.44  53.5315
   1144.22  55.6466
   1159.20  57.8452
   1174.37  60.1305
   1189.74  62.5053
   1205.32  64.9745
   1221.09  67.5414
   1237.08  70.2097
   1253.27  72.9832
   1269.68  75.8664
   1286.29  78.8633
   1303.13  81.9787
   1320.19  85.2171
   1337.47  88.5835
   1354.98  92.0829
   1372.71  95.7229
   1390.68  99.5081
   1408.88  103.443
   1427.33  107.532
   1446.01  111.783
   1464.94  116.204
   1484.11  120.798
   1503.54  125.573
   1523.22  130.571
   1543.16  135.846
   1563.36  141.333
   1583.82  147.041
   1604.55  152.980
   1625.55  159.159
   1646.83  165.586
   1668.39  172.274
   1690.23  179.233
   1712.35  186.472
   1734.76  194.002
   1757.47  201.837
   1780.48  209.988
   1803.78  218.468
   1827.39  227.289
   1851.31  236.466
   1875.54  246.013
   1900.09  255.947
   1924.97  266.280
   1950.16  277.029
   1975.69  288.212
   2001.55  299.848
   2027.75  311.978
   2054.29  324.832
   2081.18  338.219
   2108.42  352.154
   2136.02  366.663
   2163.98  381.770
   2192.31  397.497
   2221.00  413.872
   2250.07  430.919
   2279.53  448.669
   2309.36  467.150
   2339.59  486.385
   2370.22  506.415
   2401.24  527.266
   2432.67  548.973
   2464.51  571.572
   2496.77  595.100
   2529.46  619.593
   2562.56  645.089
   2596.11  671.631
   2630.09  699.264
   2664.52  728.032
   2699.39  757.975
   2734.73  789.150
   2770.52  821.599
   2806.79  855.377
   2843.53  890.537
   2880.75  927.135
   2918.46  965.228
   2956.66  1004.88
   2995.36  1046.15
   3034.57  1089.33
   3074.29  1134.92
   3114.53  1182.41
   3155.29  1231.87
   3196.60  1283.40
   3238.44  1337.06
   3280.83  1392.94
   3323.77  1451.15
   3367.28  1511.78
   3411.35  1574.92
   3456.01  1640.67
   3501.24  1709.15
   3547.07  1780.47
   3593.50  1854.73
   3640.54  1932.05
   3688.19  2012.57
   3736.47  2096.41
   3785.38  2183.69
   3834.93  2274.57
   3885.13  2369.18
   3935.98  2467.67
   3987.50  2570.20
   4039.69  2676.96
   4092.57  2788.10
   4146.14  2904.89
   4200.41  3026.76
   4255.39  3153.67
   4311.09  3285.80
   4367.52  3423.36
   4424.69  3566.58
   4482.61  3715.67
   4541.29  3870.85
   4600.73  4032.38
   4660.95  4200.50
   4721.96  4375.44
   4783.77  4557.47
   4846.39  4746.90
   4909.82  4943.98
   4974.09  5149.00
   5039.20  5362.29
   5105.16  5584.15
   5171.98  5814.87
   5239.68  6055.45
   5308.27  6307.22
   5377.75  6569.04
   5448.14  6841.31
   5519.45  7124.40
   5591.70  7418.65
   5664.89  7724.50
   5739.04  8042.37
   5814.17  8372.62
   5890.27  8715.72
   5967.37  9072.09
   6045.48  9442.26
   6124.61  9826.63
   6204.78  10225.6
   6286.00  10639.8
   6368.28  11071.1
   6451.64  11520.1
   6536.09  11985.9
   6621.64  12469.1
   6708.31  12970.0
   6796.12  13489.3
   6885.08  14027.4
   6975.20  14584.9
   7066.50  15162.2
   7159.00  15760.0
   7252.71  16378.6
   7347.64  17018.5
   7443.82  17680.3
   7541.26  18364.5
   7639.97  19071.4
   7739.97  19801.7
   7841.28  20555.7
   7943.92  21333.8
   8047.90  22136.9
   8153.25  22965.9
   8259.97  23820.3
   8368.09  24704.1
   8477.62  25617.7
   8588.59  26558.1
   8701.01  27525.4
   8814.90  28519.9
   8930.29  29541.8
   9047.18  30591.0
   9165.60  31667.4
   9285.58  32771.3
   9407.12  33902.4
   9530.25  35060.5
   9655.00  36245.3
   9781.38  37456.7
   9909.41  38694.1
   10039.1  39960.3
   10170.5  41259.6
   10303.7  42585.0
   10438.5  43935.6
   10575.2  45310.8
   10713.6  46709.9
   10853.8  48131.9
   10995.9  49576.1
   11139.8  51041.3
   11285.6  52525.9
   11433.4  54029.6
   11583.0  55550.4
   11734.6  57087.0
   11888.2  58638.2
   12043.8  60202.4
   12201.5  61777.5
   12361.2  63363.1
   12523.0  64965.9
   12686.9  66579.5
   12853.0  68197.8
   13021.2  69818.6
   13191.7  71439.7
   13364.3  73059.6
   13539.3  74676.3
   13716.5  76287.6
   13896.0  77891.2
   14077.9  79485.9
   14262.2  81068.8
   14448.9  82638.7
   14638.0  84193.4
   14829.6  85730.9
   15023.7  87258.3
   15220.4  88833.5
   15419.6  90391.8
   15621.5  91931.8
   15825.9  93452.2
   16033.1  94951.4
   16243.0  96428.0
   16455.6  97887.9
   16671.0  99325.7
   16889.2  100737.
   17110.2  102120.
   17334.2  103475.
   17561.1  104799.
   17791.0  106094.
   18023.8  107356.
   18259.8  108587.
   18498.8  109785.
   18740.9  110950.
   18986.2  112082.
   19234.8  113180.
   19486.5  114244.
   19741.6  115274.
   20000.0  116270.
