 Be Density=1.248, Angle=90.deg
 Photon Energy (eV), Atten Length (microns)
   30.0000  0.173462
   30.3506  0.180770
   30.7053  0.188386
   31.0641  0.196322
   31.4271  0.204594
   31.7944  0.213214
   32.1659  0.222196
   32.5418  0.231557
   32.9221  0.241313
   33.3068  0.251480
   33.6960  0.262076
   34.0898  0.271952
   34.4882  0.281038
   34.8912  0.289092
   35.2990  0.297376
   35.7115  0.305897
   36.1288  0.314663
   36.5510  0.323681
   36.9781  0.332956
   37.4103  0.342497
   37.8474  0.352313
   38.2897  0.362409
   38.7372  0.372794
   39.1899  0.380540
   39.6478  0.385375
   40.1112  0.392889
   40.5799  0.399058
   41.0541  0.405950
   41.5339  0.415406
   42.0192  0.423225
   42.5103  0.432303
   43.0071  0.439488
   43.5096  0.448905
   44.0181  0.456539
   44.5325  0.466454
   45.0529  0.476216
   45.5794  0.487124
   46.1120  0.498105
   46.6509  0.507703
   47.1961  0.517301
   47.7476  0.526782
   48.3056  0.534573
   48.8701  0.538756
   49.4412  0.549421
   50.0190  0.555757
   50.6035  0.558022
   51.1948  0.560297
   51.7931  0.562581
   52.3983  0.566675
   53.0107  0.573067
   53.6302  0.581540
   54.2569  0.592537
   54.8909  0.599860
   55.5324  0.610910
   56.1814  0.622831
   56.8379  0.638043
   57.5021  0.651353
   58.1741  0.663542
   58.8539  0.677863
   59.5417  0.690298
   60.2375  0.700379
   60.9414  0.710522
   61.6536  0.720758
   62.3741  0.727239
   63.1030  0.737411
   63.8404  0.743738
   64.5864  0.752446
   65.3412  0.758828
   66.1048  0.769107
   66.8773  0.776664
   67.6588  0.785758
   68.4495  0.795719
   69.2494  0.806373
   70.0586  0.822135
   70.8773  0.833280
   71.7056  0.842890
   72.5436  0.852613
   73.3913  0.862875
   74.2490  0.872161
   75.1166  0.881029
   75.9944  0.888276
   76.8825  0.894700
   77.7810  0.900917
   78.6899  0.906610
   79.6095  0.912808
   80.5398  0.917892
   81.4810  0.923269
   82.4332  0.930045
   83.3965  0.937303
   84.3711  0.947139
   85.3571  0.957542
   86.3545  0.968072
   87.3637  0.980053
   88.3846  0.992455
   89.4175  1.00518
   90.4624  1.01819
   91.5196  1.03140
   92.5891  1.04478
   93.6711  1.05816
   94.7657  1.07079
   95.8732  1.08352
   96.9935  1.09639
   98.1270  1.10643
   99.2737  1.12088
   100.434  1.13484
   101.608  1.14883
   102.795  1.16162
   103.996  1.17302
   105.211  1.19146
   106.441  1.20451
   107.685  1.20062
   108.943  1.17410
   110.216  1.09875
   111.504  0.922546
   112.807  8.646130E-02
   114.126  5.741026E-02
   115.459  6.318793E-02
   116.809  5.788305E-02
   118.174  4.250143E-02
   119.555  4.315616E-02
   120.952  4.170384E-02
   122.365  3.828650E-02
   123.795  3.752931E-02
   125.242  3.323136E-02
   126.705  3.322132E-02
   128.186  4.192952E-02
   129.684  5.476318E-02
   131.200  6.988652E-02
   132.733  7.712922E-02
   134.284  7.833100E-02
   135.853  7.923993E-02
   137.441  8.129440E-02
   139.047  8.377716E-02
   140.672  8.430776E-02
   142.316  8.391780E-02
   143.979  8.474905E-02
   145.661  8.616691E-02
   147.364  8.671921E-02
   149.086  8.657148E-02
   150.828  8.682028E-02
   152.590  8.726604E-02
   154.374  8.707771E-02
   156.178  8.603027E-02
   158.003  8.507479E-02
   159.849  8.582657E-02
   161.717  8.791739E-02
   163.607  9.294100E-02
   165.519  9.963645E-02
   167.453  0.106426
   169.410  0.112863
   171.390  0.116690
   173.393  0.121081
   175.419  0.125172
   177.469  0.131129
   179.543  0.137349
   181.641  0.140167
   183.764  0.143531
   185.911  0.146393
   188.084  0.149668
   190.282  0.151052
   192.505  0.153869
   194.755  0.158013
   197.031  0.161076
   199.333  0.163666
   201.663  0.166895
   204.019  0.169180
   206.403  0.172797
   208.816  0.177610
   211.256  0.182215
   213.724  0.187766
   216.222  0.192501
   218.749  0.198185
   221.305  0.202826
   223.891  0.208999
   226.508  0.213849
   229.155  0.222879
   231.833  0.232246
   234.542  0.241701
   237.283  0.249009
   240.056  0.255765
   242.861  0.263202
   245.699  0.270857
   248.570  0.274614
   251.475  0.280002
   254.414  0.288733
   257.387  0.297785
   260.395  0.307120
   263.438  0.316750
   266.516  0.326681
   269.631  0.336924
   272.782  0.347488
   275.969  0.358384
   279.194  0.369620
   282.457  0.381208
   285.758  0.393160
   289.097  0.405486
   292.476  0.418199
   295.894  0.431313
   299.351  0.444835
   302.850  0.458783
   306.389  0.473168
   309.969  0.488001
   313.592  0.503303
   317.256  0.518893
   320.964  0.534859
   324.714  0.551319
   328.509  0.568280
   332.348  0.585765
   336.232  0.603789
   340.161  0.622366
   344.136  0.641517
   348.158  0.661257
   352.226  0.681602
   356.342  0.702574
   360.507  0.724193
   364.720  0.746477
   368.982  0.769443
   373.294  0.793120
   377.656  0.817525
   382.069  0.842680
   386.534  0.868609
   391.051  0.896153
   395.621  0.924948
   400.244  0.954668
   404.922  0.986241
   409.654  1.01893
   414.441  1.05270
   419.284  1.08759
   424.184  1.12364
   429.141  1.16088
   434.156  1.19935
   439.229  1.23910
   444.362  1.28017
   449.555  1.32260
   454.808  1.36644
   460.123  1.41173
   465.500  1.45852
   470.940  1.50686
   476.444  1.55680
   482.011  1.60840
   487.644  1.66171
   493.343  1.71679
   499.108  1.77369
   504.941  1.83247
   510.841  1.89321
   516.811  1.95596
   522.851  2.02079
   528.961  2.08776
   535.142  2.15695
   541.396  2.22845
   547.723  2.30231
   554.123  2.37861
   560.599  2.45744
   567.150  2.54080
   573.778  2.62713
   580.483  2.71639
   587.266  2.80868
   594.129  2.90411
   601.072  3.00279
   608.096  3.10481
   615.203  3.21030
   622.392  3.31938
   629.665  3.43216
   637.024  3.54877
   644.468  3.67573
   651.999  3.80813
   659.618  3.94529
   667.327  4.08740
   675.125  4.22869
   683.015  4.36971
   690.996  4.50992
   699.071  4.65464
   707.241  4.81005
   715.506  4.97492
   723.867  5.14547
   732.326  5.32457
   740.884  5.51047
   749.542  5.70287
   758.301  5.90200
   767.163  6.10807
   776.128  6.32134
   785.198  6.54205
   794.374  6.77047
   803.657  7.00686
   813.048  7.25148
   822.550  7.50467
   832.162  7.76673
   841.887  8.03792
   851.725  8.31855
   861.678  8.60898
   871.748  8.90956
   881.935  9.22015
   892.242  9.54021
   902.668  9.87132
   913.217  10.2140
   923.889  10.5685
   934.686  10.9353
   945.608  11.3190
   956.659  11.7177
   967.838  12.1305
   979.148  12.5577
   990.591  13.0000
   1002.17  13.4579
   1013.88  13.9319
   1025.73  14.4226
   1037.71  14.9306
   1049.84  15.4564
   1062.11  16.0010
   1074.52  16.5646
   1087.08  17.1480
   1099.78  17.7520
   1112.63  18.3771
   1125.64  19.0243
   1138.79  19.6944
   1152.10  20.3882
   1165.56  21.1063
   1179.18  21.8497
   1192.96  22.6190
   1206.90  23.4157
   1221.01  24.2404
   1235.28  25.0942
   1249.71  25.9780
   1264.31  26.8930
   1279.09  27.8401
   1294.04  28.8206
   1309.16  29.8356
   1324.46  30.8864
   1339.94  31.9742
   1355.59  33.1003
   1371.44  34.2669
   1387.46  35.4749
   1403.68  36.7256
   1420.08  38.0201
   1436.68  39.3601
   1453.46  40.7475
   1470.45  42.1840
   1487.63  43.6707
   1505.02  45.2099
   1522.61  46.8142
   1540.40  48.5004
   1558.40  50.2467
   1576.61  52.0560
   1595.04  53.9306
   1613.68  55.8724
   1632.53  57.8840
   1651.61  59.9681
   1670.91  62.1273
   1690.44  64.3647
   1710.19  66.6822
   1730.18  69.0828
   1750.40  71.5700
   1770.85  74.1468
   1791.55  76.8162
   1812.48  79.5815
   1833.66  82.4461
   1855.09  85.4138
   1876.77  88.4883
   1898.70  91.6735
   1920.89  94.9731
   1943.34  98.3911
   1966.05  101.932
   1989.02  105.601
   2012.27  109.401
   2035.78  113.375
   2059.57  117.540
   2083.64  121.858
   2107.99  126.334
   2132.62  130.974
   2157.55  135.785
   2182.76  140.771
   2208.27  145.941
   2234.07  151.300
   2260.18  156.856
   2286.59  162.616
   2313.31  168.587
   2340.35  174.775
   2367.70  181.191
   2395.37  187.842
   2423.36  194.736
   2451.68  201.883
   2480.33  209.291
   2509.31  216.971
   2538.64  224.932
   2568.30  233.182
   2598.32  241.735
   2628.68  250.602
   2659.40  259.793
   2690.48  269.318
   2721.92  279.193
   2753.73  289.428
   2785.91  300.037
   2818.46  311.033
   2851.40  322.429
   2884.72  334.242
   2918.43  346.484
   2952.54  359.172
   2987.04  372.323
   3021.95  385.957
   3057.26  400.338
   3092.99  415.272
   3129.14  430.760
   3165.70  446.824
   3202.70  463.483
   3240.12  480.756
   3277.99  498.669
   3316.29  517.246
   3355.05  536.510
   3394.26  556.488
   3433.92  577.204
   3474.05  598.684
   3514.65  620.957
   3555.72  644.052
   3597.27  667.996
   3639.31  692.821
   3681.84  718.560
   3724.87  745.246
   3768.40  772.912
   3812.43  801.592
   3856.99  831.321
   3902.06  862.139
   3947.66  894.086
   3993.79  927.199
   4040.46  961.532
   4087.68  997.119
   4135.45  1034.30
   4183.77  1072.99
   4232.67  1113.10
   4282.13  1154.69
   4332.17  1197.80
   4382.80  1242.50
   4434.01  1288.83
   4485.83  1336.85
   4538.25  1386.62
   4591.29  1438.20
   4644.94  1491.67
   4699.22  1547.07
   4754.14  1604.47
   4809.69  1663.95
   4865.90  1725.58
   4922.76  1789.42
   4980.29  1855.56
   5038.49  1924.08
   5097.37  1995.05
   5156.94  2068.56
   5217.20  2144.67
   5278.17  2224.18
   5339.85  2306.55
   5402.25  2391.85
   5465.38  2480.19
   5529.25  2571.65
   5593.87  2666.32
   5659.24  2764.32
   5725.37  2865.75
   5792.28  2970.70
   5859.97  3079.31
   5928.45  3191.68
   5997.73  3307.89
   6067.82  3428.13
   6138.73  3552.48
   6210.46  3681.03
   6283.04  3813.93
   6356.46  3951.69
   6430.75  4094.66
   6505.90  4242.41
   6581.92  4395.06
   6658.84  4552.75
   6736.66  4715.60
   6815.38  4883.76
   6895.02  5057.35
   6975.60  5236.50
   7057.12  5421.32
   7139.59  5612.00
   7223.02  5808.63
   7307.43  6011.31
   7392.82  6220.20
   7479.22  6435.43
   7566.62  6657.09
   7655.04  6885.33
   7744.50  7120.30
   7835.00  7362.05
   7926.56  7610.68
   8019.19  7866.39
   8112.91  8129.60
   8207.71  8400.07
   8303.63  8677.84
   8400.67  8965.14
   8498.84  9260.24
   8598.15  9563.02
   8698.63  9873.52
   8800.29  10191.8
   8903.13  10517.9
   9007.17  10851.9
   9112.43  11193.7
   9218.91  11543.3
   9326.65  11900.8
   9435.64  12266.0
   9545.90  12639.0
   9657.46  13019.6
   9770.32  13407.8
   9884.49  13803.4
   10000.0  14206.5
