 Be Density=0.648, Angle=90.deg
 Photon Energy (eV), Atten Length (microns)
   30.0000  0.334075
   30.3927  0.349869
   30.7905  0.366407
   31.1935  0.383729
   31.6019  0.401870
   32.0155  0.420869
   32.4346  0.440765
   32.8591  0.461602
   33.2892  0.483425
   33.7250  0.506280
   34.1664  0.527230
   34.6136  0.546060
   35.0667  0.563604
   35.5257  0.581711
   35.9907  0.600402
   36.4618  0.619694
   36.9391  0.639605
   37.4226  0.660155
   37.9125  0.681368
   38.4087  0.703259
   38.9115  0.725633
   39.4208  0.736458
   39.9368  0.751114
   40.4596  0.765752
   40.9891  0.780215
   41.5257  0.799708
   42.0692  0.816623
   42.6199  0.835428
   43.1778  0.853309
   43.7429  0.871984
   44.3155  0.889457
   44.8956  0.910234
   45.4832  0.934202
   46.0786  0.958170
   46.6817  0.978860
   47.2928  0.999565
   47.9118  1.01912
   48.5390  1.03288
   49.1743  1.04677
   49.8180  1.06753
   50.4701  1.07372
   51.1307  1.07862
   51.8000  1.08354
   52.4780  1.09296
   53.1649  1.10679
   53.8608  1.12856
   54.5658  1.14893
   55.2801  1.16861
   56.0037  1.19166
   56.7367  1.22428
   57.4794  1.25385
   58.2318  1.28063
   58.9940  1.31077
   59.7662  1.33572
   60.5485  1.35742
   61.3411  1.38174
   62.1440  1.39663
   62.9574  1.41623
   63.7815  1.43184
   64.6164  1.44964
   65.4622  1.46425
   66.3190  1.48528
   67.1871  1.50252
   68.0666  1.52269
   68.9575  1.54552
   69.8601  1.57536
   70.7746  1.60254
   71.7010  1.62324
   72.6395  1.64517
   73.5903  1.66499
   74.5536  1.68653
   75.5294  1.70460
   76.5181  1.71727
   77.5197  1.73049
   78.5344  1.74318
   79.5623  1.75750
   80.6038  1.76846
   81.6588  1.77992
   82.7277  1.79548
   83.8106  1.81263
   84.9076  1.83511
   86.0190  1.85747
   87.1450  1.88251
   88.2857  1.90906
   89.4413  1.93648
   90.6120  1.96455
   91.7981  1.99310
   92.9997  2.02208
   94.2170  2.05007
   95.4502  2.07743
   96.6996  2.10506
   97.9654  2.12898
   99.2477  2.15798
   100.547  2.18679
   101.863  2.21921
   103.196  2.24527
   104.547  2.27487
   105.916  2.31078
   107.302  2.31638
   108.706  2.27147
   110.129  2.13273
   111.571  1.69556
   113.031  0.117997
   114.511  0.121722
   116.010  0.116697
   117.528  9.541744E-02
   119.067  8.338107E-02
   120.625  7.970143E-02
   122.204  7.350624E-02
   123.804  7.221079E-02
   125.424  6.286035E-02
   127.066  6.615319E-02
   128.729  8.869497E-02
   130.414  0.118595
   132.121  0.144815
   133.851  0.150652
   135.603  0.152489
   137.378  0.156358
   139.176  0.161597
   140.998  0.161976
   142.843  0.161893
   144.713  0.164348
   146.607  0.167203
   148.526  0.166491
   150.470  0.166700
   152.440  0.168169
   154.435  0.167673
   156.457  0.165385
   158.505  0.164281
   160.579  0.166386
   162.681  0.173355
   164.811  0.187112
   166.968  0.201747
   169.154  0.215852
   171.368  0.224680
   173.611  0.234311
   175.883  0.243644
   178.185  0.258316
   180.518  0.267862
   182.881  0.274216
   185.275  0.280369
   187.700  0.286817
   190.157  0.290583
   192.646  0.296648
   195.167  0.305051
   197.722  0.312270
   200.310  0.318248
   202.932  0.323766
   205.588  0.330196
   208.279  0.339951
   211.006  0.349823
   213.768  0.361790
   216.566  0.372125
   219.400  0.384469
   222.272  0.394915
   225.182  0.405584
   228.129  0.421474
   231.115  0.440159
   234.140  0.462756
   237.205  0.478983
   240.310  0.494555
   243.456  0.509342
   246.642  0.523994
   249.871  0.531117
   253.141  0.548720
   256.455  0.568013
   259.812  0.587978
   263.213  0.608653
   266.658  0.630053
   270.148  0.652206
   273.685  0.675138
   277.267  0.698877
   280.896  0.723449
   284.573  0.748884
   288.298  0.775211
   292.072  0.802468
   295.895  0.830685
   299.768  0.859889
   303.692  0.890126
   307.667  0.921420
   311.694  0.953815
   315.774  0.987218
   319.907  1.02128
   324.095  1.05652
   328.337  1.09297
   332.635  1.13068
   336.989  1.16969
   341.400  1.21005
   345.868  1.25180
   350.396  1.29499
   354.982  1.33967
   359.629  1.38590
   364.336  1.43372
   369.105  1.48318
   373.936  1.53436
   378.831  1.58730
   383.790  1.64207
   388.813  1.69917
   393.903  1.76040
   399.059  1.82383
   404.282  1.89102
   409.574  1.96131
   414.935  2.03422
   420.367  2.10983
   425.869  2.18826
   431.443  2.26960
   437.091  2.35396
   442.812  2.44146
   448.608  2.53221
   454.480  2.62634
   460.429  2.72396
   466.456  2.82522
   472.562  2.93023
   478.747  3.03915
   485.014  3.15211
   491.363  3.26929
   497.794  3.39081
   504.310  3.51685
   510.911  3.64758
   517.599  3.78316
   524.374  3.92379
   531.238  4.06963
   538.191  4.22091
   545.236  4.37782
   552.373  4.54054
   559.603  4.70931
   566.928  4.88789
   574.349  5.07416
   581.867  5.26752
   589.483  5.46824
   597.199  5.67662
   605.016  5.89294
   612.936  6.11751
   620.959  6.35063
   629.087  6.59263
   637.321  6.84385
   645.663  7.11925
   654.115  7.40690
   662.677  7.70615
   671.351  8.01362
   680.139  8.31965
   689.041  8.61913
   698.061  8.92930
   707.198  9.26216
   716.455  9.61825
   725.833  9.98847
   735.334  10.3796
   744.959  10.7861
   754.710  11.2085
   764.589  11.6475
   774.597  12.1036
   784.736  12.5776
   795.008  13.0702
   805.414  13.5820
   815.956  14.1139
   826.637  14.6666
   837.457  15.2411
   848.419  15.8379
   859.524  16.4581
   870.775  17.1026
   882.173  17.7714
   893.720  18.4633
   905.419  19.1820
   917.270  19.9289
   929.277  20.7048
   941.441  21.5146
   953.764  22.3646
   966.248  23.2482
   978.896  24.1666
   991.709  25.1214
   1004.69  26.1139
   1017.84  27.1454
   1031.16  28.2178
   1044.66  29.3326
   1058.34  30.4916
   1072.19  31.6964
   1086.22  32.9486
   1100.44  34.2502
   1114.85  35.6029
   1129.44  37.0095
   1144.22  38.4717
   1159.20  39.9917
   1174.37  41.5717
   1189.74  43.2136
   1205.32  44.9206
   1221.09  46.6953
   1237.08  48.5400
   1253.27  50.4575
   1269.68  52.4509
   1286.29  54.5228
   1303.13  56.6767
   1320.19  58.9155
   1337.47  61.2429
   1354.98  63.6623
   1372.71  66.1788
   1390.68  68.7957
   1408.88  71.5160
   1427.33  74.3434
   1446.01  77.2823
   1464.94  80.3384
   1484.11  83.5144
   1503.54  86.8159
   1523.22  90.2712
   1543.16  93.9183
   1563.36  97.7115
   1583.82  101.658
   1604.55  105.764
   1625.55  110.036
   1646.83  114.480
   1668.39  119.103
   1690.23  123.914
   1712.35  128.919
   1734.76  134.125
   1757.47  139.542
   1780.48  145.177
   1803.78  151.039
   1827.39  157.138
   1851.31  163.482
   1875.54  170.083
   1900.09  176.951
   1924.97  184.095
   1950.16  191.526
   1975.69  199.258
   2001.55  207.302
   2027.75  215.688
   2054.29  224.575
   2081.18  233.830
   2108.42  243.465
   2136.02  253.496
   2163.98  263.940
   2192.31  274.813
   2221.00  286.134
   2250.07  297.919
   2279.53  310.191
   2309.36  322.968
   2339.59  336.266
   2370.22  350.114
   2401.24  364.530
   2432.67  379.537
   2464.51  395.161
   2496.77  411.427
   2529.46  428.361
   2562.56  445.988
   2596.11  464.337
   2630.09  483.442
   2664.52  503.331
   2699.39  524.032
   2734.73  545.585
   2770.52  568.019
   2806.79  591.372
   2843.53  615.680
   2880.75  640.983
   2918.46  667.318
   2956.66  694.730
   2995.36  723.264
   3034.57  753.114
   3074.29  784.638
   3114.53  817.466
   3155.29  851.667
   3196.60  887.287
   3238.44  924.386
   3280.83  963.022
   3323.77  1003.26
   3367.28  1045.18
   3411.35  1088.83
   3456.01  1134.29
   3501.24  1181.64
   3547.07  1230.94
   3593.50  1282.28
   3640.54  1335.74
   3688.19  1391.40
   3736.47  1449.37
   3785.38  1509.71
   3834.93  1572.54
   3885.13  1637.95
   3935.98  1706.04
   3987.50  1776.93
   4039.69  1850.74
   4092.57  1927.57
   4146.14  2008.32
   4200.41  2092.58
   4255.39  2180.32
   4311.09  2271.66
   4367.52  2366.77
   4424.69  2465.79
   4482.61  2568.86
   4541.29  2676.15
   4600.73  2787.82
   4660.95  2904.05
   4721.96  3024.99
   4783.77  3150.85
   4846.39  3281.81
   4909.82  3418.06
   4974.09  3559.80
   5039.20  3707.26
   5105.16  3860.65
   5171.98  4020.16
   5239.68  4186.48
   5308.27  4360.55
   5377.75  4541.56
   5448.14  4729.80
   5519.45  4925.51
   5591.70  5128.94
   5664.89  5340.39
   5739.04  5560.16
   5814.17  5788.48
   5890.27  6025.68
   5967.37  6272.06
   6045.48  6527.98
   6124.61  6793.72
   6204.78  7069.58
   6286.00  7355.91
   6368.28  7654.06
   6451.64  7964.51
   6536.09  8286.56
   6621.64  8620.60
   6708.31  8966.92
   6796.12  9325.93
   6885.08  9697.98
   6975.20  10083.4
   7066.50  10482.5
   7159.00  10895.8
   7252.71  11323.5
   7347.64  11765.9
   7443.82  12223.4
   7541.26  12696.4
   7639.97  13185.2
   7739.97  13690.1
   7841.28  14211.4
   7943.92  14749.3
   8047.90  15304.5
   8153.25  15877.7
   8259.97  16468.4
   8368.09  17079.4
   8477.62  17711.0
   8588.59  18361.2
   8701.01  19029.9
   8814.90  19717.5
   8930.29  20423.9
   9047.18  21149.3
   9165.60  21893.5
   9285.58  22656.7
   9407.12  23438.7
   9530.25  24239.3
   9655.00  25058.5
   9781.38  25896.0
   9909.41  26751.5
   10039.1  27626.8
   10170.5  28525.2
   10303.7  29441.5
   10438.5  30375.3
   10575.2  31326.0
   10713.6  32293.3
   10853.8  33276.4
   10995.9  34274.8
   11139.8  35287.8
   11285.6  36314.2
   11433.4  37353.8
   11583.0  38405.2
   11734.6  39467.6
   11888.2  40540.0
   12043.8  41621.4
   12201.5  42710.3
   12361.2  43806.6
   12523.0  44914.7
   12686.9  46030.3
   12853.0  47149.1
   13021.2  48269.7
   13191.7  49390.4
   13364.3  50510.3
   13539.3  51628.1
   13716.5  52742.1
   13896.0  53850.7
   14077.9  54953.2
   14262.2  56047.6
   14448.9  57132.9
   14638.0  58207.8
   14829.6  59270.8
   15023.7  60326.7
   15220.4  61415.8
   15419.6  62493.1
   15621.5  63557.8
   15825.9  64609.0
   16033.1  65645.4
   16243.0  66666.3
   16455.6  67675.6
   16671.0  68669.6
   16889.2  69645.4
   17110.2  70601.5
   17334.2  71538.0
   17561.1  72453.9
   17791.0  73348.6
   18023.8  74221.6
   18259.8  75072.6
   18498.8  75901.0
   18740.9  76706.4
   18986.2  77488.9
   19234.8  78248.1
   19486.5  78983.7
   19741.6  79695.7
   20000.0  80384.0
