 Be Density=1.048, Angle=90.deg
 Photon Energy (eV), Atten Length (microns)
   30.0000  0.206565
   30.3506  0.215269
   30.7053  0.224337
   31.0641  0.233789
   31.4271  0.243638
   31.7944  0.253903
   32.1659  0.264600
   32.5418  0.275748
   32.9221  0.287366
   33.3068  0.299473
   33.6960  0.312090
   34.0898  0.323852
   34.4882  0.334672
   34.8912  0.344262
   35.2990  0.354127
   35.7115  0.364275
   36.1288  0.374714
   36.5510  0.385452
   36.9781  0.396497
   37.4103  0.407859
   37.8474  0.419548
   38.2897  0.431571
   38.7372  0.443938
   39.1899  0.453163
   39.6478  0.458919
   40.1112  0.467868
   40.5799  0.475215
   41.0541  0.483421
   41.5339  0.494682
   42.0192  0.503993
   42.5103  0.514803
   43.0071  0.523359
   43.5096  0.534574
   44.0181  0.543665
   44.5325  0.555472
   45.0529  0.567096
   45.5794  0.580087
   46.1120  0.593163
   46.6509  0.604593
   47.1961  0.616022
   47.7476  0.627313
   48.3056  0.636591
   48.8701  0.641572
   49.4412  0.654272
   50.0190  0.661817
   50.6035  0.664515
   51.1948  0.667225
   51.7931  0.669944
   52.3983  0.674819
   53.0107  0.682431
   53.6302  0.692521
   54.2569  0.705617
   54.8909  0.714337
   55.5324  0.727496
   56.1814  0.741692
   56.8379  0.759807
   57.5021  0.775656
   58.1741  0.790172
   58.8539  0.807226
   59.5417  0.822035
   60.2375  0.834040
   60.9414  0.846118
   61.6536  0.858307
   62.3741  0.866025
   63.1030  0.878138
   63.8404  0.885673
   64.5864  0.896042
   65.3412  0.903643
   66.1048  0.915883
   66.8773  0.924883
   67.6588  0.935712
   68.4495  0.947574
   69.2494  0.960262
   70.0586  0.979031
   70.8773  0.992303
   71.7056  1.00375
   72.5436  1.01533
   73.3913  1.02755
   74.2490  1.03860
   75.1166  1.04916
   75.9944  1.05779
   76.8825  1.06544
   77.7810  1.07285
   78.6899  1.07963
   79.6095  1.08701
   80.5398  1.09306
   81.4810  1.09947
   82.4332  1.10753
   83.3965  1.11618
   84.3711  1.12789
   85.3571  1.14028
   86.3545  1.15282
   87.3637  1.16709
   88.3846  1.18186
   89.4175  1.19701
   90.4624  1.21250
   91.5196  1.22823
   92.5891  1.24417
   93.6711  1.26009
   94.7657  1.27514
   95.8732  1.29030
   96.9935  1.30563
   98.1270  1.31758
   99.2737  1.33479
   100.434  1.35142
   101.608  1.36808
   102.795  1.38330
   103.996  1.39688
   105.211  1.41883
   106.441  1.43438
   107.685  1.42975
   108.943  1.39816
   110.216  1.30843
   111.504  1.09860
   112.807  0.102962
   114.126  6.836642E-02
   115.459  7.524670E-02
   116.809  6.892944E-02
   118.174  5.061240E-02
   119.555  5.139206E-02
   120.952  4.966259E-02
   122.365  4.559308E-02
   123.795  4.469140E-02
   125.242  3.957323E-02
   126.705  3.956127E-02
   128.186  4.993133E-02
   129.684  6.521417E-02
   131.200  8.322364E-02
   132.733  9.184853E-02
   134.284  9.327967E-02
   135.853  9.436206E-02
   137.441  9.680860E-02
   139.047  9.976517E-02
   140.672  0.100397
   142.316  9.993265E-02
   143.979  0.100923
   145.661  0.102611
   147.364  0.103269
   149.086  0.103093
   150.828  0.103389
   152.590  0.103920
   154.374  0.103696
   156.178  0.102448
   158.003  0.101310
   159.849  0.102206
   161.717  0.104696
   163.607  0.110678
   165.519  0.118651
   167.453  0.126736
   169.410  0.134402
   171.390  0.138960
   173.393  0.144188
   175.419  0.149059
   177.469  0.156154
   179.543  0.163561
   181.641  0.166916
   183.764  0.170923
   185.911  0.174331
   188.084  0.178230
   190.282  0.179879
   192.505  0.183234
   194.755  0.188168
   197.031  0.191816
   199.333  0.194900
   201.663  0.198745
   204.019  0.201467
   206.403  0.205774
   208.816  0.211506
   211.256  0.216989
   213.724  0.223599
   216.222  0.229238
   218.749  0.236006
   221.305  0.241533
   223.891  0.248884
   226.508  0.254660
   229.155  0.265414
   231.833  0.276568
   234.542  0.287827
   237.283  0.296530
   240.056  0.304575
   242.861  0.313432
   245.699  0.322547
   248.570  0.327022
   251.475  0.333438
   254.414  0.343835
   257.387  0.354614
   260.395  0.365730
   263.438  0.377198
   266.516  0.389025
   269.631  0.401222
   272.782  0.413802
   275.969  0.426778
   279.194  0.440159
   282.457  0.453958
   285.758  0.468191
   289.097  0.482869
   292.476  0.498009
   295.894  0.513624
   299.351  0.529727
   302.850  0.546337
   306.389  0.563467
   309.969  0.581130
   313.592  0.599353
   317.256  0.617919
   320.964  0.636932
   324.714  0.656533
   328.509  0.676731
   332.348  0.697552
   336.232  0.719016
   340.161  0.741139
   344.136  0.763944
   348.158  0.787451
   352.226  0.811679
   356.342  0.836653
   360.507  0.862398
   364.720  0.888934
   368.982  0.916284
   373.294  0.944479
   377.656  0.973541
   382.069  1.00350
   386.534  1.03437
   391.051  1.06717
   395.621  1.10146
   400.244  1.13686
   404.922  1.17446
   409.654  1.21338
   414.441  1.25360
   419.284  1.29514
   424.184  1.33807
   429.141  1.38242
   434.156  1.42824
   439.229  1.47558
   444.362  1.52448
   449.555  1.57501
   454.808  1.62721
   460.123  1.68114
   465.500  1.73686
   470.940  1.79443
   476.444  1.85390
   482.011  1.91535
   487.644  1.97883
   493.343  2.04442
   499.108  2.11218
   504.941  2.18218
   510.841  2.25451
   516.811  2.32923
   522.851  2.40643
   528.961  2.48619
   535.142  2.56859
   541.396  2.65373
   547.723  2.74168
   554.123  2.83255
   560.599  2.92642
   567.150  3.02568
   573.778  3.12849
   580.483  3.23479
   587.266  3.34469
   594.129  3.45833
   601.072  3.57584
   608.096  3.69733
   615.203  3.82295
   622.392  3.95285
   629.665  4.08715
   637.024  4.22601
   644.468  4.37720
   651.999  4.53487
   659.618  4.69821
   667.327  4.86743
   675.125  5.03569
   683.015  5.20363
   690.996  5.37059
   699.071  5.54293
   707.241  5.72800
   715.506  5.92434
   723.867  6.12743
   732.326  6.34071
   740.884  6.56208
   749.542  6.79120
   758.301  7.02834
   767.163  7.27373
   776.128  7.52770
   785.198  7.79053
   794.374  8.06255
   803.657  8.34404
   813.048  8.63535
   822.550  8.93686
   832.162  9.24892
   841.887  9.57188
   851.725  9.90605
   861.678  10.2519
   871.748  10.6099
   881.935  10.9797
   892.242  11.3609
   902.668  11.7552
   913.217  12.1632
   923.889  12.5855
   934.686  13.0222
   945.608  13.4792
   956.659  13.9540
   967.838  14.4455
   979.148  14.9542
   990.591  15.4809
   1002.17  16.0263
   1013.88  16.5906
   1025.73  17.1750
   1037.71  17.7799
   1049.84  18.4062
   1062.11  19.0547
   1074.52  19.7258
   1087.08  20.4205
   1099.78  21.1398
   1112.63  21.8842
   1125.64  22.6549
   1138.79  23.4529
   1152.10  24.2791
   1165.56  25.1343
   1179.18  26.0195
   1192.96  26.9356
   1206.90  27.8843
   1221.01  28.8665
   1235.28  29.8832
   1249.71  30.9356
   1264.31  32.0252
   1279.09  33.1531
   1294.04  34.3207
   1309.16  35.5295
   1324.46  36.7808
   1339.94  38.0761
   1355.59  39.4172
   1371.44  40.8064
   1387.46  42.2449
   1403.68  43.7343
   1420.08  45.2758
   1436.68  46.8716
   1453.46  48.5238
   1470.45  50.2344
   1487.63  52.0048
   1505.02  53.8378
   1522.61  55.7482
   1540.40  57.7562
   1558.40  59.8358
   1576.61  61.9904
   1595.04  64.2226
   1613.68  66.5350
   1632.53  68.9306
   1651.61  71.4124
   1670.91  73.9837
   1690.44  76.6481
   1710.19  79.4079
   1730.18  82.2666
   1750.40  85.2284
   1770.85  88.2969
   1791.55  91.4757
   1812.48  94.7688
   1833.66  98.1801
   1855.09  101.714
   1876.77  105.375
   1898.70  109.168
   1920.89  113.098
   1943.34  117.168
   1966.05  121.385
   1989.02  125.753
   2012.27  130.279
   2035.78  135.012
   2059.57  139.971
   2083.64  145.113
   2107.99  150.443
   2132.62  155.969
   2157.55  161.698
   2182.76  167.636
   2208.27  173.793
   2234.07  180.175
   2260.18  186.790
   2286.59  193.649
   2313.31  200.760
   2340.35  208.129
   2367.70  215.770
   2395.37  223.690
   2423.36  231.900
   2451.68  240.410
   2480.33  249.232
   2509.31  258.378
   2538.64  267.857
   2568.30  277.683
   2598.32  287.868
   2628.68  298.426
   2659.40  309.372
   2690.48  320.715
   2721.92  332.474
   2753.73  344.663
   2785.91  357.296
   2818.46  370.390
   2851.40  383.961
   2884.72  398.029
   2918.43  412.607
   2952.54  427.717
   2987.04  443.377
   3021.95  459.613
   3057.26  476.738
   3092.99  494.523
   3129.14  512.966
   3165.70  532.096
   3202.70  551.933
   3240.12  572.504
   3277.99  593.835
   3316.29  615.957
   3355.05  638.897
   3394.26  662.688
   3433.92  687.357
   3474.05  712.937
   3514.65  739.461
   3555.72  766.963
   3597.27  795.477
   3639.31  825.039
   3681.84  855.690
   3724.87  887.468
   3768.40  920.414
   3812.43  954.568
   3856.99  989.970
   3902.06  1026.67
   3947.66  1064.71
   3993.79  1104.15
   4040.46  1145.03
   4087.68  1187.41
   4135.45  1231.69
   4183.77  1277.76
   4232.67  1325.53
   4282.13  1375.05
   4332.17  1426.39
   4382.80  1479.61
   4434.01  1534.78
   4485.83  1591.97
   4538.25  1651.24
   4591.29  1712.67
   4644.94  1776.34
   4699.22  1842.31
   4754.14  1910.67
   4809.69  1981.50
   4865.90  2054.88
   4922.76  2130.92
   4980.29  2209.68
   5038.49  2291.27
   5097.37  2375.79
   5156.94  2463.32
   5217.20  2553.95
   5278.17  2648.64
   5339.85  2746.73
   5402.25  2848.31
   5465.38  2953.51
   5529.25  3062.42
   5593.87  3175.15
   5659.24  3291.86
   5725.37  3412.65
   5792.28  3537.63
   5859.97  3666.96
   5928.45  3800.77
   5997.73  3939.17
   6067.82  4082.36
   6138.73  4230.43
   6210.46  4383.52
   6283.04  4541.78
   6356.46  4705.83
   6430.75  4876.08
   6505.90  5052.03
   6581.92  5233.81
   6658.84  5421.60
   6736.66  5615.53
   6815.38  5815.77
   6895.02  6022.50
   6975.60  6235.83
   7057.12  6455.93
   7139.59  6683.00
   7223.02  6917.15
   7307.43  7158.50
   7392.82  7407.26
   7479.22  7663.56
   7566.62  7927.53
   7655.04  8199.33
   7744.50  8479.14
   7835.00  8767.02
   7926.56  9063.10
   8019.19  9367.61
   8112.91  9681.05
   8207.71  10003.1
   8303.63  10333.9
   8400.67  10676.0
   8498.84  11027.5
   8598.15  11388.0
   8698.63  11757.8
   8800.29  12136.8
   8903.13  12525.2
   9007.17  12922.9
   9112.43  13329.9
   9218.91  13746.2
   9326.65  14171.9
   9435.64  14606.8
   9545.90  15051.0
   9657.46  15504.2
   9770.32  15966.5
   9884.49  16437.7
   10000.0  16917.7
