 Be Density=0.848, Angle=90.deg
 Photon Energy (eV), Atten Length (microns)
   30.0000  0.255283
   30.3927  0.267352
   30.7905  0.279991
   31.1935  0.293227
   31.6019  0.307089
   32.0155  0.321607
   32.4346  0.336811
   32.8591  0.352734
   33.2892  0.369410
   33.7250  0.386874
   34.1664  0.402884
   34.6136  0.417272
   35.0667  0.430679
   35.5257  0.444515
   35.9907  0.458798
   36.4618  0.473540
   36.9391  0.488754
   37.4226  0.504458
   37.9125  0.520668
   38.4087  0.537396
   38.9115  0.554493
   39.4208  0.562765
   39.9368  0.573964
   40.4596  0.585150
   40.9891  0.596202
   41.5257  0.611098
   42.0692  0.624023
   42.6199  0.638393
   43.1778  0.652057
   43.7429  0.666327
   44.3155  0.679679
   44.8956  0.695556
   45.4832  0.713871
   46.0786  0.732186
   46.6817  0.747997
   47.2928  0.763819
   47.9118  0.778759
   48.5390  0.789278
   49.1743  0.799887
   49.8180  0.815755
   50.4701  0.820482
   51.1307  0.824227
   51.8000  0.827988
   52.4780  0.835189
   53.1649  0.845754
   53.8608  0.862387
   54.5658  0.877955
   55.2801  0.892998
   56.0037  0.910609
   56.7367  0.935538
   57.4794  0.958128
   58.2318  0.978598
   58.9940  1.00163
   59.7662  1.02069
   60.5485  1.03728
   61.3411  1.05586
   62.1440  1.06723
   62.9574  1.08221
   63.7815  1.09414
   64.6164  1.10775
   65.4622  1.11891
   66.3190  1.13498
   67.1871  1.14815
   68.0666  1.16356
   68.9575  1.18101
   69.8601  1.20382
   70.7746  1.22458
   71.7010  1.24040
   72.6395  1.25716
   73.5903  1.27230
   74.5536  1.28876
   75.5294  1.30257
   76.5181  1.31225
   77.5197  1.32235
   78.5344  1.33205
   79.5623  1.34300
   80.6038  1.35137
   81.6588  1.36013
   82.7277  1.37201
   83.8106  1.38512
   84.9076  1.40230
   86.0190  1.41939
   87.1450  1.43852
   88.2857  1.45881
   89.4413  1.47976
   90.6120  1.50121
   91.7981  1.52303
   92.9997  1.54518
   94.2170  1.56656
   95.4502  1.58747
   96.6996  1.60859
   97.9654  1.62686
   99.2477  1.64902
   100.547  1.67104
   101.863  1.69581
   103.196  1.71573
   104.547  1.73834
   105.916  1.76578
   107.302  1.77006
   108.706  1.73575
   110.129  1.62973
   111.571  1.29566
   113.031  9.016732E-02
   114.511  9.301359E-02
   116.010  8.917446E-02
   117.528  7.291333E-02
   119.067  6.371571E-02
   120.625  6.090391E-02
   122.204  5.616986E-02
   123.804  5.517994E-02
   125.424  4.803479E-02
   127.066  5.055102E-02
   128.729  6.777635E-02
   130.414  9.062430E-02
   132.121  0.110660
   133.851  0.115121
   135.603  0.116525
   137.378  0.119481
   139.176  0.123485
   140.998  0.123774
   142.843  0.123711
   144.713  0.125586
   146.607  0.127768
   148.526  0.127224
   150.470  0.127384
   152.440  0.128507
   154.435  0.128127
   156.457  0.126379
   158.505  0.125535
   160.579  0.127144
   162.681  0.132470
   164.811  0.142981
   166.968  0.154165
   169.154  0.164944
   171.368  0.171689
   173.611  0.179049
   175.883  0.186180
   178.185  0.197393
   180.518  0.204687
   182.881  0.209542
   185.275  0.214245
   187.700  0.219171
   190.157  0.222050
   192.646  0.226684
   195.167  0.233105
   197.722  0.238622
   200.310  0.243190
   202.932  0.247406
   205.588  0.252320
   208.279  0.259774
   211.006  0.267318
   213.768  0.276462
   216.566  0.284360
   219.400  0.293792
   222.272  0.301774
   225.182  0.309927
   228.129  0.322070
   231.115  0.336348
   234.140  0.353615
   237.205  0.366015
   240.310  0.377915
   243.456  0.389214
   246.642  0.400410
   249.871  0.405854
   253.141  0.419305
   256.455  0.434047
   259.812  0.449304
   263.213  0.465103
   266.658  0.481456
   270.148  0.498384
   273.685  0.515907
   277.267  0.534048
   280.896  0.552824
   284.573  0.572260
   288.298  0.592378
   292.072  0.613206
   295.895  0.634769
   299.768  0.657085
   303.692  0.680191
   307.667  0.704104
   311.694  0.728859
   315.774  0.754384
   319.907  0.780410
   324.095  0.807342
   328.337  0.835195
   332.635  0.864010
   336.989  0.893821
   341.400  0.924661
   345.868  0.956567
   350.396  0.989571
   354.982  1.02371
   359.629  1.05904
   364.336  1.09558
   369.105  1.13338
   373.936  1.17248
   378.831  1.21294
   383.790  1.25479
   388.813  1.29842
   393.903  1.34521
   399.059  1.39368
   404.282  1.44503
   409.574  1.49874
   414.935  1.55445
   420.367  1.61223
   425.869  1.67216
   431.443  1.73432
   437.091  1.79878
   442.812  1.86564
   448.608  1.93499
   454.480  2.00692
   460.429  2.08152
   466.456  2.15889
   472.562  2.23914
   478.747  2.32237
   485.014  2.40869
   491.363  2.49823
   497.794  2.59109
   504.310  2.68741
   510.911  2.78730
   517.599  2.89091
   524.374  2.99837
   531.238  3.10982
   538.191  3.22541
   545.236  3.34531
   552.373  3.46966
   559.603  3.59862
   566.928  3.73508
   574.349  3.87742
   581.867  4.02518
   589.483  4.17856
   597.199  4.33780
   605.016  4.50310
   612.936  4.67470
   620.959  4.85284
   629.087  5.03776
   637.321  5.22974
   645.663  5.44018
   654.115  5.65999
   662.677  5.88866
   671.351  6.12361
   680.139  6.35747
   689.041  6.58631
   698.061  6.82333
   707.198  7.07769
   716.455  7.34980
   725.833  7.63270
   735.334  7.93158
   744.959  8.24220
   754.710  8.56499
   764.589  8.90043
   774.597  9.24898
   784.736  9.61119
   795.008  9.98760
   805.414  10.3787
   815.956  10.7851
   826.637  11.2075
   837.457  11.6465
   848.419  12.1025
   859.524  12.5765
   870.775  13.0690
   882.173  13.5800
   893.720  14.1088
   905.419  14.6580
   917.270  15.2287
   929.277  15.8216
   941.441  16.4404
   953.764  17.0900
   966.248  17.7652
   978.896  18.4669
   991.709  19.1965
   1004.69  19.9549
   1017.84  20.7432
   1031.16  21.5627
   1044.66  22.4145
   1058.34  23.3002
   1072.19  24.2209
   1086.22  25.1777
   1100.44  26.1723
   1114.85  27.2060
   1129.44  28.2808
   1144.22  29.3982
   1159.20  30.5597
   1174.37  31.7671
   1189.74  33.0217
   1205.32  34.3261
   1221.09  35.6823
   1237.08  37.0919
   1253.27  38.5572
   1269.68  40.0804
   1286.29  41.6636
   1303.13  43.3095
   1320.19  45.0204
   1337.47  46.7988
   1354.98  48.6476
   1372.71  50.5706
   1390.68  52.5703
   1408.88  54.6490
   1427.33  56.8096
   1446.01  59.0554
   1464.94  61.3906
   1484.11  63.8176
   1503.54  66.3405
   1523.22  68.9809
   1543.16  71.7677
   1563.36  74.6663
   1583.82  77.6822
   1604.55  80.8198
   1625.55  84.0839
   1646.83  87.4797
   1668.39  91.0128
   1690.23  94.6893
   1712.35  98.5135
   1734.76  102.492
   1757.47  106.631
   1780.48  110.937
   1803.78  115.417
   1827.39  120.077
   1851.31  124.925
   1875.54  129.969
   1900.09  135.217
   1924.97  140.676
   1950.16  146.355
   1975.69  152.263
   2001.55  158.410
   2027.75  164.818
   2054.29  171.610
   2081.18  178.682
   2108.42  186.044
   2136.02  193.709
   2163.98  201.690
   2192.31  209.999
   2221.00  218.649
   2250.07  227.655
   2279.53  237.033
   2309.36  246.796
   2339.59  256.958
   2370.22  267.540
   2401.24  278.556
   2432.67  290.024
   2464.51  301.963
   2496.77  314.392
   2529.46  327.332
   2562.56  340.802
   2596.11  354.824
   2630.09  369.423
   2664.52  384.621
   2699.39  400.439
   2734.73  416.909
   2770.52  434.052
   2806.79  451.897
   2843.53  470.472
   2880.75  489.807
   2918.46  509.932
   2956.66  530.879
   2995.36  552.682
   3034.57  575.493
   3074.29  599.582
   3114.53  624.668
   3155.29  650.802
   3196.60  678.021
   3238.44  706.371
   3280.83  735.894
   3323.77  766.645
   3367.28  798.675
   3411.35  832.032
   3456.01  866.771
   3501.24  902.950
   3547.07  940.626
   3593.50  979.857
   3640.54  1020.71
   3688.19  1063.24
   3736.47  1107.53
   3785.38  1153.65
   3834.93  1201.66
   3885.13  1251.64
   3935.98  1303.67
   3987.50  1357.84
   4039.69  1414.24
   4092.57  1472.96
   4146.14  1534.66
   4200.41  1599.05
   4255.39  1666.09
   4311.09  1735.89
   4367.52  1808.57
   4424.69  1884.23
   4482.61  1963.00
   4541.29  2044.98
   4600.73  2130.32
   4660.95  2219.13
   4721.96  2311.55
   4783.77  2407.72
   4846.39  2507.80
   4909.82  2611.91
   4974.09  2720.22
   5039.20  2832.91
   5105.16  2950.12
   5171.98  3072.01
   5239.68  3199.10
   5308.27  3332.12
   5377.75  3470.43
   5448.14  3614.28
   5519.45  3763.83
   5591.70  3919.29
   5664.89  4080.87
   5739.04  4248.80
   5814.17  4423.27
   5890.27  4604.53
   5967.37  4792.80
   6045.48  4988.36
   6124.61  5191.43
   6204.78  5402.23
   6286.00  5621.02
   6368.28  5848.86
   6451.64  6086.09
   6536.09  6332.18
   6621.64  6587.44
   6708.31  6852.08
   6796.12  7126.42
   6885.08  7410.72
   6975.20  7705.22
   7066.50  8010.22
   7159.00  8326.03
   7252.71  8652.83
   7347.64  8990.90
   7443.82  9340.53
   7541.26  9701.98
   7639.97  10075.5
   7739.97  10461.3
   7841.28  10859.6
   7943.92  11270.7
   8047.90  11695.0
   8153.25  12132.9
   8259.97  12584.3
   8368.09  13051.2
   8477.62  13533.9
   8588.59  14030.7
   8701.01  14541.7
   8814.90  15067.1
   8930.29  15607.0
   9047.18  16161.3
   9165.60  16730.0
   9285.58  17313.1
   9407.12  17910.7
   9530.25  18522.5
   9655.00  19148.5
   9781.38  19788.4
   9909.41  20442.2
   10039.1  21111.1
   10170.5  21797.5
   10303.7  22497.7
   10438.5  23211.3
   10575.2  23937.8
   10713.6  24676.9
   10853.8  25428.2
   10995.9  26191.1
   11139.8  26965.2
   11285.6  27749.6
   11433.4  28543.9
   11583.0  29347.4
   11734.6  30159.2
   11888.2  30978.7
   12043.8  31805.0
   12201.5  32637.1
   12361.2  33474.9
   12523.0  34321.6
   12686.9  35174.1
   12853.0  36029.0
   13021.2  36885.3
   13191.7  37741.7
   13364.3  38597.5
   13539.3  39451.6
   13716.5  40302.9
   13896.0  41150.1
   14077.9  41992.5
   14262.2  42828.8
   14448.9  43658.2
   14638.0  44479.5
   14829.6  45291.8
   15023.7  46098.7
   15220.4  46930.9
   15419.6  47754.2
   15621.5  48567.8
   15825.9  49371.0
   16033.1  50163.0
   16243.0  50943.1
   16455.6  51714.4
   16671.0  52474.0
   16889.2  53219.6
   17110.2  53950.2
   17334.2  54665.8
   17561.1  55365.7
   17791.0  56049.4
   18023.8  56716.5
   18259.8  57366.8
   18498.8  57999.8
   18740.9  58615.3
   18986.2  59213.2
   19234.8  59793.3
   19486.5  60355.4
   19741.6  60899.5
   20000.0  61425.5
