 Be Density=0.848, Angle=90.deg
 Photon Energy (eV), Atten Length (microns)
   30.0000  0.255283
   30.3506  0.266039
   30.7053  0.277247
   31.0641  0.288927
   31.4271  0.301100
   31.7944  0.313786
   32.1659  0.327005
   32.5418  0.340782
   32.9221  0.355140
   33.3068  0.370103
   33.6960  0.385696
   34.0898  0.400232
   34.4882  0.413604
   34.8912  0.425456
   35.2990  0.437647
   35.7115  0.450188
   36.1288  0.463090
   36.5510  0.476361
   36.9781  0.490011
   37.4103  0.504053
   37.8474  0.518499
   38.2897  0.533356
   38.7372  0.548640
   39.1899  0.560040
   39.6478  0.567155
   40.1112  0.578214
   40.5799  0.587294
   41.0541  0.597436
   41.5339  0.611352
   42.0192  0.622860
   42.5103  0.636219
   43.0071  0.646793
   43.5096  0.660652
   44.0181  0.671888
   44.5325  0.686480
   45.0529  0.700846
   45.5794  0.716900
   46.1120  0.733060
   46.6509  0.747185
   47.1961  0.761311
   47.7476  0.775264
   48.3056  0.786730
   48.8701  0.792886
   49.4412  0.808582
   50.0190  0.817906
   50.6035  0.821241
   51.1948  0.824589
   51.7931  0.827949
   52.3983  0.833975
   53.0107  0.843382
   53.6302  0.855851
   54.2569  0.872036
   54.8909  0.882813
   55.5324  0.899076
   56.1814  0.916619
   56.8379  0.939007
   57.5021  0.958594
   58.1741  0.976533
   58.8539  0.997610
   59.5417  1.01591
   60.2375  1.03075
   60.9414  1.04567
   61.6536  1.06074
   62.3741  1.07028
   63.1030  1.08525
   63.8404  1.09456
   64.5864  1.10737
   65.3412  1.11677
   66.1048  1.13189
   66.8773  1.14302
   67.6588  1.15640
   68.4495  1.17106
   69.2494  1.18674
   70.0586  1.20993
   70.8773  1.22634
   71.7056  1.24048
   72.5436  1.25479
   73.3913  1.26989
   74.2490  1.28356
   75.1166  1.29661
   75.9944  1.30727
   76.8825  1.31673
   77.7810  1.32588
   78.6899  1.33426
   79.6095  1.34338
   80.5398  1.35086
   81.4810  1.35877
   82.4332  1.36875
   83.3965  1.37943
   84.3711  1.39390
   85.3571  1.40921
   86.3545  1.42471
   87.3637  1.44234
   88.3846  1.46059
   89.4175  1.47933
   90.4624  1.49846
   91.5196  1.51790
   92.5891  1.53760
   93.6711  1.55729
   94.7657  1.57588
   95.8732  1.59462
   96.9935  1.61356
   98.1270  1.62833
   99.2737  1.64960
   100.434  1.67015
   101.608  1.69074
   102.795  1.70955
   103.996  1.72633
   105.211  1.75346
   106.441  1.77267
   107.685  1.76696
   108.943  1.72792
   110.216  1.61703
   111.504  1.35771
   112.807  0.127245
   114.126  8.449057E-02
   115.459  9.299356E-02
   116.809  8.518637E-02
   118.174  6.254928E-02
   119.555  6.351283E-02
   120.952  6.137546E-02
   122.365  5.634616E-02
   123.795  5.523181E-02
   125.242  4.890653E-02
   126.705  4.889176E-02
   128.186  6.170759E-02
   129.684  8.059487E-02
   131.200  0.102852
   132.733  0.113511
   134.284  0.115280
   135.853  0.116617
   137.441  0.119641
   139.047  0.123295
   140.672  0.124076
   142.316  0.123502
   143.979  0.124725
   145.661  0.126812
   147.364  0.127624
   149.086  0.127407
   150.828  0.127773
   152.590  0.128429
   154.374  0.128152
   156.178  0.126611
   158.003  0.125204
   159.849  0.126311
   161.717  0.129388
   163.607  0.136781
   165.519  0.146635
   167.453  0.156627
   169.410  0.166101
   171.390  0.171733
   173.393  0.178194
   175.419  0.184215
   177.469  0.192983
   179.543  0.202137
   181.641  0.206283
   183.764  0.211235
   185.911  0.215447
   188.084  0.220266
   190.282  0.222303
   192.505  0.226449
   194.755  0.232547
   197.031  0.237055
   199.333  0.240867
   201.663  0.245619
   204.019  0.248983
   206.403  0.254305
   208.816  0.261389
   211.256  0.268166
   213.724  0.276334
   216.222  0.283303
   218.749  0.291668
   221.305  0.298499
   223.891  0.307583
   226.508  0.314721
   229.155  0.328011
   231.833  0.341797
   234.542  0.355711
   237.283  0.366466
   240.056  0.376409
   242.861  0.387355
   245.699  0.398620
   248.570  0.404149
   251.475  0.412079
   254.414  0.424928
   257.387  0.438250
   260.395  0.451988
   263.438  0.466160
   266.516  0.480776
   269.631  0.495850
   272.782  0.511397
   275.969  0.527433
   279.194  0.543969
   282.457  0.561024
   285.758  0.578613
   289.097  0.596753
   292.476  0.615463
   295.894  0.634762
   299.351  0.654663
   302.850  0.675191
   306.389  0.696360
   309.969  0.718190
   313.592  0.740710
   317.256  0.763654
   320.964  0.787151
   324.714  0.811375
   328.509  0.836337
   332.348  0.862069
   336.232  0.888595
   340.161  0.915935
   344.136  0.944120
   348.158  0.973171
   352.226  1.00311
   356.342  1.03398
   360.507  1.06579
   364.720  1.09859
   368.982  1.13239
   373.294  1.16723
   377.656  1.20315
   382.069  1.24017
   386.534  1.27833
   391.051  1.31887
   395.621  1.36124
   400.244  1.40498
   404.922  1.45145
   409.654  1.49955
   414.441  1.54926
   419.284  1.60060
   424.184  1.65366
   429.141  1.70846
   434.156  1.76509
   439.229  1.82359
   444.362  1.88403
   449.555  1.94647
   454.808  2.01099
   460.123  2.07764
   465.500  2.14650
   470.940  2.21764
   476.444  2.29115
   482.011  2.36708
   487.644  2.44553
   493.343  2.52659
   499.108  2.61033
   504.941  2.69685
   510.841  2.78623
   516.811  2.87858
   522.851  2.97399
   528.961  3.07255
   535.142  3.17439
   541.396  3.27960
   547.723  3.38830
   554.123  3.50060
   560.599  3.61662
   567.150  3.73929
   573.778  3.86634
   580.483  3.99771
   587.266  4.13353
   594.129  4.27397
   601.072  4.41919
   608.096  4.56935
   615.203  4.72459
   622.392  4.88512
   629.665  5.05110
   637.024  5.22271
   644.468  5.40956
   651.999  5.60441
   659.618  5.80628
   667.327  6.01541
   675.125  6.22335
   683.015  6.43090
   690.996  6.63724
   699.071  6.85023
   707.241  7.07894
   715.506  7.32159
   723.867  7.57258
   732.326  7.83615
   740.884  8.10975
   749.542  8.39290
   758.301  8.68596
   767.163  8.98924
   776.128  9.30310
   785.198  9.62792
   794.374  9.96409
   803.657  10.3120
   813.048  10.6720
   822.550  11.0446
   832.162  11.4303
   841.887  11.8294
   851.725  12.2424
   861.678  12.6698
   871.748  13.1122
   881.935  13.5693
   892.242  14.0403
   902.668  14.5276
   913.217  15.0319
   923.889  15.5537
   934.686  16.0935
   945.608  16.6582
   956.659  17.2450
   967.838  17.8524
   979.148  18.4811
   990.591  19.1321
   1002.17  19.8060
   1013.88  20.5035
   1025.73  21.2257
   1037.71  21.9733
   1049.84  22.7472
   1062.11  23.5487
   1074.52  24.3781
   1087.08  25.2367
   1099.78  26.1256
   1112.63  27.0455
   1125.64  27.9980
   1138.79  28.9843
   1152.10  30.0053
   1165.56  31.0622
   1179.18  32.1561
   1192.96  33.2883
   1206.90  34.4608
   1221.01  35.6746
   1235.28  36.9311
   1249.71  38.2317
   1264.31  39.5783
   1279.09  40.9722
   1294.04  42.4152
   1309.16  43.9091
   1324.46  45.4555
   1339.94  47.0564
   1355.59  48.7137
   1371.44  50.4305
   1387.46  52.2083
   1403.68  54.0490
   1420.08  55.9541
   1436.68  57.9262
   1453.46  59.9680
   1470.45  62.0822
   1487.63  64.2701
   1505.02  66.5353
   1522.61  68.8963
   1540.40  71.3779
   1558.40  73.9480
   1576.61  76.6107
   1595.04  79.3695
   1613.68  82.2273
   1632.53  85.1878
   1651.61  88.2550
   1670.91  91.4327
   1690.44  94.7254
   1710.19  98.1361
   1730.18  101.669
   1750.40  105.329
   1770.85  109.122
   1791.55  113.050
   1812.48  117.120
   1833.66  121.336
   1855.09  125.703
   1876.77  130.228
   1898.70  134.916
   1920.89  139.772
   1943.34  144.802
   1966.05  150.013
   1989.02  155.412
   2012.27  161.006
   2035.78  166.854
   2059.57  172.983
   2083.64  179.338
   2107.99  185.925
   2132.62  192.754
   2157.55  199.834
   2182.76  207.173
   2208.27  214.781
   2234.07  222.669
   2260.18  230.844
   2286.59  239.322
   2313.31  248.109
   2340.35  257.215
   2367.70  266.659
   2395.37  276.447
   2423.36  286.593
   2451.68  297.110
   2480.33  308.014
   2509.31  319.316
   2538.64  331.031
   2568.30  343.174
   2598.32  355.761
   2628.68  368.810
   2659.40  382.337
   2690.48  396.355
   2721.92  410.887
   2753.73  425.951
   2785.91  441.564
   2818.46  457.746
   2851.40  474.518
   2884.72  491.903
   2918.43  509.920
   2952.54  528.593
   2987.04  547.948
   3021.95  568.012
   3057.26  589.176
   3092.99  611.155
   3129.14  633.949
   3165.70  657.591
   3202.70  682.106
   3240.12  707.528
   3277.99  733.891
   3316.29  761.230
   3355.05  789.581
   3394.26  818.983
   3433.92  849.470
   3474.05  881.082
   3514.65  913.862
   3555.72  947.851
   3597.27  983.089
   3639.31  1019.62
   3681.84  1057.50
   3724.87  1096.78
   3768.40  1137.49
   3812.43  1179.70
   3856.99  1223.45
   3902.06  1268.81
   3947.66  1315.82
   3993.79  1364.56
   4040.46  1415.08
   4087.68  1467.46
   4135.45  1522.18
   4183.77  1579.12
   4232.67  1638.15
   4282.13  1699.36
   4332.17  1762.81
   4382.80  1828.58
   4434.01  1896.76
   4485.83  1967.44
   4538.25  2040.68
   4591.29  2116.60
   4644.94  2195.29
   4699.22  2276.81
   4754.14  2361.30
   4809.69  2448.83
   4865.90  2539.53
   4922.76  2633.49
   4980.29  2730.83
   5038.49  2831.66
   5097.37  2936.12
   5156.94  3044.29
   5217.20  3156.30
   5278.17  3273.32
   5339.85  3394.55
   5402.25  3520.08
   5465.38  3650.09
   5529.25  3784.69
   5593.87  3924.01
   5659.24  4068.24
   5725.37  4217.52
   5792.28  4371.98
   5859.97  4531.81
   5928.45  4697.18
   5997.73  4868.22
   6067.82  5045.18
   6138.73  5228.17
   6210.46  5417.36
   6283.04  5612.96
   6356.46  5815.69
   6430.75  6026.10
   6505.90  6243.54
   6581.92  6468.20
   6658.84  6700.27
   6736.66  6939.94
   6815.38  7187.42
   6895.02  7442.90
   6975.60  7706.54
   7057.12  7978.55
   7139.59  8259.17
   7223.02  8548.55
   7307.43  8846.83
   7392.82  9154.26
   7479.22  9471.01
   7566.62  9797.23
   7655.04  10133.1
   7744.50  10478.9
   7835.00  10834.7
   7926.56  11200.6
   8019.19  11577.0
   8112.91  11964.3
   8207.71  12362.4
   8303.63  12771.2
   8400.67  13194.0
   8498.84  13628.3
   8598.15  14073.9
   8698.63  14530.8
   8800.29  14999.3
   8903.13  15479.2
   9007.17  15970.7
   9112.43  16473.7
   9218.91  16988.3
   9326.65  17514.3
   9435.64  18051.8
   9545.90  18600.7
   9657.46  19160.9
   9770.32  19732.2
   9884.49  20314.5
   10000.0  20907.7
