 Be Density=1.048, Angle=90.deg
 Photon Energy (eV), Atten Length (microns)
   30.0000  0.206565
   30.3927  0.216331
   30.7905  0.226557
   31.1935  0.237268
   31.6019  0.248485
   32.0155  0.260232
   32.4346  0.272534
   32.8591  0.285418
   33.2892  0.298912
   33.7250  0.313043
   34.1664  0.325997
   34.6136  0.337640
   35.0667  0.348488
   35.5257  0.359684
   35.9907  0.371241
   36.4618  0.383169
   36.9391  0.395481
   37.4226  0.408187
   37.9125  0.421304
   38.4087  0.434839
   38.9115  0.448674
   39.4208  0.455367
   39.9368  0.464429
   40.4596  0.473480
   40.9891  0.482423
   41.5257  0.494476
   42.0692  0.504935
   42.6199  0.516562
   43.1778  0.527618
   43.7429  0.539166
   44.3155  0.549969
   44.8956  0.562816
   45.4832  0.577636
   46.0786  0.592456
   46.6817  0.605250
   47.2928  0.618052
   47.9118  0.630141
   48.5390  0.638653
   49.1743  0.647237
   49.8180  0.660076
   50.4701  0.663901
   51.1307  0.666932
   51.8000  0.669975
   52.4780  0.675801
   53.1649  0.684350
   53.8608  0.697809
   54.5658  0.710406
   55.2801  0.722579
   56.0037  0.736828
   56.7367  0.757000
   57.4794  0.775279
   58.2318  0.791843
   58.9940  0.810478
   59.7662  0.825905
   60.5485  0.839322
   61.3411  0.854358
   62.1440  0.863563
   62.9574  0.875683
   63.7815  0.885336
   64.6164  0.896344
   65.4622  0.905376
   66.3190  0.918381
   67.1871  0.929040
   68.0666  0.941508
   68.9575  0.955630
   69.8601  0.974079
   70.7746  0.990883
   71.7010  1.00368
   72.6395  1.01724
   73.5903  1.02950
   74.5536  1.04282
   75.5294  1.05399
   76.5181  1.06182
   77.5197  1.07000
   78.5344  1.07784
   79.5623  1.08670
   80.6038  1.09348
   81.6588  1.10056
   82.7277  1.11018
   83.8106  1.12079
   84.9076  1.13469
   86.0190  1.14851
   87.1450  1.16399
   88.2857  1.18041
   89.4413  1.19737
   90.6120  1.21472
   91.7981  1.23237
   92.9997  1.25030
   94.2170  1.26760
   95.4502  1.28452
   96.6996  1.30160
   97.9654  1.31639
   99.2477  1.33432
   100.547  1.35214
   101.863  1.37218
   103.196  1.38830
   104.547  1.40660
   105.916  1.42880
   107.302  1.43226
   108.706  1.40450
   110.129  1.31871
   111.571  1.04840
   113.031  7.295982E-02
   114.511  7.526292E-02
   116.010  7.215644E-02
   117.528  5.899857E-02
   119.067  5.155623E-02
   120.625  4.928104E-02
   122.204  4.545042E-02
   123.804  4.464941E-02
   125.424  3.886785E-02
   127.066  4.090388E-02
   128.729  5.484193E-02
   130.414  7.332961E-02
   132.121  8.954183E-02
   133.851  9.315113E-02
   135.603  9.428728E-02
   137.378  9.667928E-02
   139.176  9.991893E-02
   140.998  0.100153
   142.843  0.100102
   144.713  0.101619
   146.607  0.103385
   148.526  0.102945
   150.470  0.103074
   152.440  0.103982
   154.435  0.103675
   156.457  0.102261
   158.505  0.101578
   160.579  0.102880
   162.681  0.107189
   164.811  0.115695
   166.968  0.124745
   169.154  0.133466
   171.368  0.138924
   173.611  0.144879
   175.883  0.150650
   178.185  0.159722
   180.518  0.165624
   182.881  0.169553
   185.275  0.173358
   187.700  0.177345
   190.157  0.179674
   192.646  0.183423
   195.167  0.188620
   197.722  0.193083
   200.310  0.196780
   202.932  0.200191
   205.588  0.204167
   208.279  0.210199
   211.006  0.216303
   213.768  0.223702
   216.566  0.230093
   219.400  0.237725
   222.272  0.244184
   225.182  0.250781
   228.129  0.260606
   231.115  0.272159
   234.140  0.286131
   237.205  0.296165
   240.310  0.305794
   243.456  0.314937
   246.642  0.323996
   249.871  0.328401
   253.141  0.339285
   256.455  0.351214
   259.812  0.363559
   263.213  0.376343
   266.658  0.389575
   270.148  0.403272
   273.685  0.417452
   277.267  0.432130
   280.896  0.447323
   284.573  0.463050
   288.298  0.479329
   292.072  0.496182
   295.895  0.513630
   299.768  0.531687
   303.692  0.550383
   307.667  0.569733
   311.694  0.589764
   315.774  0.610417
   319.907  0.631477
   324.095  0.653269
   328.337  0.675806
   332.635  0.699122
   336.989  0.723245
   341.400  0.748199
   345.868  0.774016
   350.396  0.800722
   354.982  0.828348
   359.629  0.856929
   364.336  0.886498
   369.105  0.917083
   373.936  0.948727
   378.831  0.981463
   383.790  1.01533
   388.813  1.05063
   393.903  1.08849
   399.059  1.12771
   404.282  1.16926
   409.574  1.21272
   414.935  1.25780
   420.367  1.30455
   425.869  1.35305
   431.443  1.40334
   437.091  1.45550
   442.812  1.50960
   448.608  1.56572
   454.480  1.62392
   460.429  1.68428
   466.456  1.74689
   472.562  1.81182
   478.747  1.87917
   485.014  1.94902
   491.363  2.02147
   497.794  2.09661
   504.310  2.17454
   510.911  2.25538
   517.599  2.33921
   524.374  2.42616
   531.238  2.51634
   538.191  2.60988
   545.236  2.70689
   552.373  2.80751
   559.603  2.91186
   566.928  3.02228
   574.349  3.13745
   581.867  3.25701
   589.483  3.38112
   597.199  3.50997
   605.016  3.64373
   612.936  3.78258
   620.959  3.92672
   629.087  4.07636
   637.321  4.23169
   645.663  4.40198
   654.115  4.57984
   662.677  4.76487
   671.351  4.95498
   680.139  5.14421
   689.041  5.32938
   698.061  5.52117
   707.198  5.72699
   716.455  5.94716
   725.833  6.17608
   735.334  6.41792
   744.959  6.66926
   754.710  6.93045
   764.589  7.20187
   774.597  7.48391
   784.736  7.77699
   795.008  8.08157
   805.414  8.39804
   815.956  8.72690
   826.637  9.06867
   837.457  9.42387
   848.419  9.79290
   859.524  10.1764
   870.775  10.5749
   882.173  10.9884
   893.720  11.4162
   905.419  11.8607
   917.270  12.3225
   929.277  12.8022
   941.441  13.3029
   953.764  13.8285
   966.248  14.3749
   978.896  14.9427
   991.709  15.5331
   1004.69  16.1467
   1017.84  16.7846
   1031.16  17.4477
   1044.66  18.1369
   1058.34  18.8536
   1072.19  19.5986
   1086.22  20.3728
   1100.44  21.1776
   1114.85  22.0140
   1129.44  22.8837
   1144.22  23.7879
   1159.20  24.7277
   1174.37  25.7047
   1189.74  26.7198
   1205.32  27.7753
   1221.09  28.8727
   1237.08  30.0133
   1253.27  31.1989
   1269.68  32.4315
   1286.29  33.7126
   1303.13  35.0443
   1320.19  36.4287
   1337.47  37.8678
   1354.98  39.3637
   1372.71  40.9197
   1390.68  42.5378
   1408.88  44.2198
   1427.33  45.9681
   1446.01  47.7853
   1464.94  49.6749
   1484.11  51.6387
   1503.54  53.6801
   1523.22  55.8166
   1543.16  58.0716
   1563.36  60.4170
   1583.82  62.8574
   1604.55  65.3962
   1625.55  68.0374
   1646.83  70.7851
   1668.39  73.6440
   1690.23  76.6188
   1712.35  79.7132
   1734.76  82.9322
   1757.47  86.2814
   1780.48  89.7658
   1803.78  93.3907
   1827.39  97.1616
   1851.31  101.085
   1875.54  105.166
   1900.09  109.412
   1924.97  113.829
   1950.16  118.425
   1975.69  123.205
   2001.55  128.179
   2027.75  133.364
   2054.29  138.860
   2081.18  144.582
   2108.42  150.539
   2136.02  156.742
   2163.98  163.200
   2192.31  169.923
   2221.00  176.922
   2250.07  184.210
   2279.53  191.797
   2309.36  199.698
   2339.59  207.920
   2370.22  216.483
   2401.24  225.396
   2432.67  234.676
   2464.51  244.336
   2496.77  254.394
   2529.46  264.864
   2562.56  275.763
   2596.11  287.109
   2630.09  298.922
   2664.52  311.220
   2699.39  324.020
   2734.73  337.347
   2770.52  351.218
   2806.79  365.657
   2843.53  380.688
   2880.75  396.333
   2918.46  412.617
   2956.66  429.566
   2995.36  447.209
   3034.57  465.666
   3074.29  485.158
   3114.53  505.456
   3155.29  526.603
   3196.60  548.628
   3238.44  571.567
   3280.83  595.456
   3323.77  620.338
   3367.28  646.256
   3411.35  673.248
   3456.01  701.357
   3501.24  730.631
   3547.07  761.117
   3593.50  792.862
   3640.54  825.915
   3688.19  860.334
   3736.47  896.173
   3785.38  933.487
   3834.93  972.336
   3885.13  1012.78
   3935.98  1054.88
   3987.50  1098.71
   4039.69  1144.35
   4092.57  1191.86
   4146.14  1241.79
   4200.41  1293.88
   4255.39  1348.14
   4311.09  1404.62
   4367.52  1463.42
   4424.69  1524.65
   4482.61  1588.38
   4541.29  1654.72
   4600.73  1723.77
   4660.95  1795.63
   4721.96  1870.42
   4783.77  1948.23
   4846.39  2029.21
   4909.82  2113.46
   4974.09  2201.10
   5039.20  2292.28
   5105.16  2387.12
   5171.98  2485.75
   5239.68  2588.59
   5308.27  2696.22
   5377.75  2808.14
   5448.14  2924.53
   5519.45  3045.55
   5591.70  3171.33
   5664.89  3302.08
   5739.04  3437.96
   5814.17  3579.13
   5890.27  3725.80
   5967.37  3878.15
   6045.48  4036.39
   6124.61  4200.70
   6204.78  4371.27
   6286.00  4548.31
   6368.28  4732.66
   6451.64  4924.62
   6536.09  5123.75
   6621.64  5330.30
   6708.31  5544.43
   6796.12  5766.41
   6885.08  5996.46
   6975.20  6234.76
   7066.50  6481.55
   7159.00  6737.09
   7252.71  7001.52
   7347.64  7275.08
   7443.82  7557.99
   7541.26  7850.46
   7639.97  8152.66
   7739.97  8464.85
   7841.28  8787.19
   7943.92  9119.78
   8047.90  9463.10
   8153.25  9817.50
   8259.97  10182.7
   8368.09  10560.6
   8477.62  10951.1
   8588.59  11353.1
   8701.01  11766.6
   8814.90  12191.7
   8930.29  12628.5
   9047.18  13077.1
   9165.60  13537.2
   9285.58  14009.1
   9407.12  14492.6
   9530.25  14987.7
   9655.00  15494.2
   9781.38  16012.0
   9909.41  16541.0
   10039.1  17082.2
   10170.5  17637.7
   10303.7  18204.3
   10438.5  18781.7
   10575.2  19369.5
   10713.6  19967.6
   10853.8  20575.5
   10995.9  21192.8
   11139.8  21819.2
   11285.6  22453.8
   11433.4  23096.6
   11583.0  23746.7
   11734.6  24403.6
   11888.2  25066.7
   12043.8  25735.4
   12201.5  26408.7
   12361.2  27086.5
   12523.0  27771.7
   12686.9  28461.5
   12853.0  29153.3
   13021.2  29846.1
   13191.7  30539.1
   13364.3  31231.6
   13539.3  31922.7
   13716.5  32611.5
   13896.0  33297.0
   14077.9  33978.7
   14262.2  34655.4
   14448.9  35326.5
   14638.0  35991.1
   14829.6  36648.3
   15023.7  37301.3
   15220.4  37974.6
   15419.6  38640.8
   15621.5  39299.1
   15825.9  39949.1
   16033.1  40589.9
   16243.0  41221.1
   16455.6  41845.2
   16671.0  42459.9
   16889.2  43063.2
   17110.2  43654.4
   17334.2  44233.4
   17561.1  44799.7
   17791.0  45353.0
   18023.8  45892.8
   18259.8  46419.0
   18498.8  46931.2
   18740.9  47429.2
   18986.2  47913.0
   19234.8  48382.4
   19486.5  48837.2
   19741.6  49277.5
   20000.0  49703.1
