 Be Density=1.248, Angle=90.deg
 Photon Energy (eV), Atten Length (microns)
   30.0000  0.173462
   30.3927  0.181663
   30.7905  0.190250
   31.1935  0.199244
   31.6019  0.208663
   32.0155  0.218528
   32.4346  0.228859
   32.8591  0.239678
   33.2892  0.251009
   33.7250  0.262876
   34.1664  0.273754
   34.6136  0.283531
   35.0667  0.292641
   35.5257  0.302042
   35.9907  0.311747
   36.4618  0.321764
   36.9391  0.332102
   37.4226  0.342773
   37.9125  0.353787
   38.4087  0.365154
   38.9115  0.376771
   39.4208  0.382392
   39.9368  0.390001
   40.4596  0.397602
   40.9891  0.405112
   41.5257  0.415233
   42.0692  0.424016
   42.6199  0.433780
   43.1778  0.443064
   43.7429  0.452761
   44.3155  0.461833
   44.8956  0.472621
   45.4832  0.485066
   46.0786  0.497511
   46.6817  0.508254
   47.2928  0.519005
   47.9118  0.529157
   48.5390  0.536304
   49.1743  0.543513
   49.8180  0.554295
   50.4701  0.557507
   51.1307  0.560052
   51.8000  0.562607
   52.4780  0.567500
   53.1649  0.574679
   53.8608  0.585981
   54.5658  0.596559
   55.2801  0.606781
   56.0037  0.618747
   56.7367  0.635686
   57.4794  0.651036
   58.2318  0.664945
   58.9940  0.680594
   59.7662  0.693548
   60.5485  0.704815
   61.3411  0.717442
   62.1440  0.725171
   62.9574  0.735350
   63.7815  0.743455
   64.6164  0.752699
   65.4622  0.760283
   66.3190  0.771204
   67.1871  0.780155
   68.0666  0.790625
   68.9575  0.802484
   69.8601  0.817977
   70.7746  0.832088
   71.7010  0.842836
   72.6395  0.854223
   73.5903  0.864513
   74.5536  0.875698
   75.5294  0.885081
   76.5181  0.891658
   77.5197  0.898523
   78.5344  0.905113
   79.5623  0.912549
   80.6038  0.918241
   81.6588  0.924190
   82.7277  0.932267
   83.8106  0.941174
   84.9076  0.952847
   86.0190  0.964455
   87.1450  0.977456
   88.2857  0.991241
   89.4413  1.00548
   90.6120  1.02005
   91.7981  1.03488
   92.9997  1.04993
   94.2170  1.06446
   95.4502  1.07867
   96.6996  1.09301
   97.9654  1.10543
   99.2477  1.12049
   100.547  1.13545
   101.863  1.15228
   103.196  1.16581
   104.547  1.18118
   105.916  1.19983
   107.302  1.20273
   108.706  1.17942
   110.129  1.10738
   111.571  0.880387
   113.031  6.126755E-02
   114.511  6.320155E-02
   116.010  6.059290E-02
   117.528  4.954367E-02
   119.067  4.329401E-02
   120.625  4.138343E-02
   122.204  3.816669E-02
   123.804  3.749407E-02
   125.424  3.263902E-02
   127.066  3.434877E-02
   128.729  4.605316E-02
   130.414  6.157806E-02
   132.121  7.519217E-02
   133.851  7.822306E-02
   135.603  7.917715E-02
   137.378  8.118581E-02
   139.176  8.390626E-02
   140.998  8.410288E-02
   142.843  8.405974E-02
   144.713  8.533432E-02
   146.607  8.681687E-02
   148.526  8.644715E-02
   150.470  8.655553E-02
   152.440  8.731858E-02
   154.435  8.706073E-02
   156.457  8.587281E-02
   158.505  8.529957E-02
   160.579  8.639262E-02
   162.681  9.001148E-02
   164.811  9.715407E-02
   166.968  0.104753
   169.154  0.112077
   171.368  0.116661
   173.611  0.121662
   175.883  0.126507
   178.185  0.134126
   180.518  0.139082
   182.881  0.142381
   185.275  0.145576
   187.700  0.148924
   190.157  0.150880
   192.646  0.154029
   195.167  0.158392
   197.722  0.162140
   200.310  0.165244
   202.932  0.168109
   205.588  0.171448
   208.279  0.176513
   211.006  0.181639
   213.768  0.187853
   216.566  0.193219
   219.400  0.199628
   222.272  0.205052
   225.182  0.210592
   228.129  0.218842
   231.115  0.228544
   234.140  0.240277
   237.205  0.248703
   240.310  0.256788
   243.456  0.264466
   246.642  0.272074
   249.871  0.275772
   253.141  0.284912
   256.455  0.294930
   259.812  0.305296
   263.213  0.316031
   266.658  0.327143
   270.148  0.338645
   273.685  0.350552
   277.267  0.362879
   280.896  0.375637
   284.573  0.388843
   288.298  0.402514
   292.072  0.416666
   295.895  0.431317
   299.768  0.446481
   303.692  0.462181
   307.667  0.478430
   311.694  0.495250
   315.774  0.512594
   319.907  0.530279
   324.095  0.548578
   328.337  0.567504
   332.635  0.587084
   336.989  0.607340
   341.400  0.628295
   345.868  0.649975
   350.396  0.672401
   354.982  0.695600
   359.629  0.719601
   364.336  0.744431
   369.105  0.770114
   373.936  0.796688
   378.831  0.824177
   383.790  0.852614
   388.813  0.882263
   393.903  0.914054
   399.059  0.946990
   404.282  0.981877
   409.574  1.01837
   414.935  1.05623
   420.367  1.09549
   425.869  1.13621
   431.443  1.17845
   437.091  1.22225
   442.812  1.26768
   448.608  1.31480
   454.480  1.36367
   460.429  1.41436
   466.456  1.46694
   472.562  1.52147
   478.747  1.57802
   485.014  1.63667
   491.363  1.69752
   497.794  1.76062
   504.310  1.82606
   510.911  1.89394
   517.599  1.96433
   524.374  2.03735
   531.238  2.11308
   538.191  2.19163
   545.236  2.27310
   552.373  2.35759
   559.603  2.44522
   566.928  2.53794
   574.349  2.63466
   581.867  2.73506
   589.483  2.83928
   597.199  2.94748
   605.016  3.05980
   612.936  3.17640
   620.959  3.29744
   629.087  3.42310
   637.321  3.55354
   645.663  3.69654
   654.115  3.84589
   662.677  4.00127
   671.351  4.16092
   680.139  4.31982
   689.041  4.47532
   698.061  4.63637
   707.198  4.80920
   716.455  4.99409
   725.833  5.18632
   735.334  5.38941
   744.959  5.60047
   754.710  5.81980
   764.589  6.04773
   774.597  6.28456
   784.736  6.53068
   795.008  6.78645
   805.414  7.05220
   815.956  7.32836
   826.637  7.61536
   837.457  7.91364
   848.419  8.22353
   859.524  8.54557
   870.775  8.88022
   882.173  9.22745
   893.720  9.58672
   905.419  9.95991
   917.270  10.3477
   929.277  10.7506
   941.441  11.1710
   953.764  11.6124
   966.248  12.0712
   978.896  12.5480
   991.709  13.0438
   1004.69  13.5591
   1017.84  14.0947
   1031.16  14.6516
   1044.66  15.2304
   1058.34  15.8322
   1072.19  16.4578
   1086.22  17.1079
   1100.44  17.7837
   1114.85  18.4861
   1129.44  19.2165
   1144.22  19.9757
   1159.20  20.7649
   1174.37  21.5853
   1189.74  22.4378
   1205.32  23.3242
   1221.09  24.2456
   1237.08  25.2035
   1253.27  26.1991
   1269.68  27.2341
   1286.29  28.3099
   1303.13  29.4283
   1320.19  30.5908
   1337.47  31.7992
   1354.98  33.0554
   1372.71  34.3621
   1390.68  35.7209
   1408.88  37.1333
   1427.33  38.6014
   1446.01  40.1274
   1464.94  41.7142
   1484.11  43.3633
   1503.54  45.0775
   1523.22  46.8716
   1543.16  48.7653
   1563.36  50.7348
   1583.82  52.7841
   1604.55  54.9160
   1625.55  57.1340
   1646.83  59.4413
   1668.39  61.8421
   1690.23  64.3401
   1712.35  66.9386
   1734.76  69.6418
   1757.47  72.4543
   1780.48  75.3803
   1803.78  78.4242
   1827.39  81.5909
   1851.31  84.8851
   1875.54  88.3125
   1900.09  91.8783
   1924.97  95.5876
   1950.16  99.4463
   1975.69  103.461
   2001.55  107.638
   2027.75  111.992
   2054.29  116.606
   2081.18  121.412
   2108.42  126.414
   2136.02  131.623
   2163.98  137.046
   2192.31  142.691
   2221.00  148.569
   2250.07  154.689
   2279.53  161.061
   2309.36  167.695
   2339.59  174.600
   2370.22  181.790
   2401.24  189.275
   2432.67  197.067
   2464.51  205.180
   2496.77  213.626
   2529.46  222.418
   2562.56  231.570
   2596.11  241.098
   2630.09  251.018
   2664.52  261.345
   2699.39  272.094
   2734.73  283.285
   2770.52  294.933
   2806.79  307.058
   2843.53  319.680
   2880.75  332.818
   2918.46  346.492
   2956.66  360.725
   2995.36  375.541
   3034.57  391.040
   3074.29  407.408
   3114.53  424.454
   3155.29  442.211
   3196.60  460.707
   3238.44  479.970
   3280.83  500.031
   3323.77  520.925
   3367.28  542.690
   3411.35  565.355
   3456.01  588.960
   3501.24  613.543
   3547.07  639.143
   3593.50  665.800
   3640.54  693.556
   3688.19  722.460
   3736.47  752.556
   3785.38  783.890
   3834.93  816.513
   3885.13  850.474
   3935.98  885.830
   3987.50  922.636
   4039.69  960.960
   4092.57  1000.86
   4146.14  1042.78
   4200.41  1086.53
   4255.39  1132.09
   4311.09  1179.52
   4367.52  1228.90
   4424.69  1280.31
   4482.61  1333.83
   4541.29  1389.54
   4600.73  1447.52
   4660.95  1507.87
   4721.96  1570.67
   4783.77  1636.02
   4846.39  1704.01
   4909.82  1774.76
   4974.09  1848.36
   5039.20  1924.93
   5105.16  2004.57
   5171.98  2087.39
   5239.68  2173.75
   5308.27  2264.13
   5377.75  2358.12
   5448.14  2455.86
   5519.45  2557.48
   5591.70  2663.11
   5664.89  2772.90
   5739.04  2887.00
   5814.17  3005.55
   5890.27  3128.72
   5967.37  3256.65
   6045.48  3389.53
   6124.61  3527.51
   6204.78  3670.74
   6286.00  3819.41
   6368.28  3974.22
   6451.64  4135.42
   6536.09  4302.64
   6621.64  4476.08
   6708.31  4655.90
   6796.12  4842.31
   6885.08  5035.49
   6975.20  5235.60
   7066.50  5442.84
   7159.00  5657.43
   7252.71  5879.48
   7347.64  6109.20
   7443.82  6346.77
   7541.26  6592.37
   7639.97  6846.14
   7739.97  7108.30
   7841.28  7378.98
   7943.92  7658.28
   8047.90  7946.57
   8153.25  8244.18
   8259.97  8550.89
   8368.09  8868.15
   8477.62  9196.11
   8588.59  9533.69
   8701.01  9880.92
   8814.90  10237.9
   8930.29  10604.7
   9047.18  10981.4
   9165.60  11367.8
   9285.58  11764.1
   9407.12  12170.1
   9530.25  12585.8
   9655.00  13011.1
   9781.38  13446.0
   9909.41  13890.2
   10039.1  14344.7
   10170.5  14811.1
   10303.7  15286.9
   10438.5  15771.8
   10575.2  16265.4
   10713.6  16767.7
   10853.8  17278.1
   10995.9  17796.5
   11139.8  18322.5
   11285.6  18855.5
   11433.4  19395.2
   11583.0  19941.2
   11734.6  20492.8
   11888.2  21049.6
   12043.8  21611.1
   12201.5  22176.5
   12361.2  22745.7
   12523.0  23321.1
   12686.9  23900.3
   12853.0  24481.3
   13021.2  25063.1
   13191.7  25645.0
   13364.3  26226.5
   13539.3  26806.9
   13716.5  27385.3
   13896.0  27960.9
   14077.9  28533.4
   14262.2  29101.6
   14448.9  29665.2
   14638.0  30223.3
   14829.6  30775.2
   15023.7  31323.5
   15220.4  31889.0
   15419.6  32448.3
   15621.5  33001.2
   15825.9  33547.0
   16033.1  34085.1
   16243.0  34615.2
   16455.6  35139.3
   16671.0  35655.4
   16889.2  36162.0
   17110.2  36658.5
   17334.2  37144.7
   17561.1  37620.3
   17791.0  38084.9
   18023.8  38538.1
   18259.8  38980.0
   18498.8  39410.1
   18740.9  39828.3
   18986.2  40234.6
   19234.8  40628.8
   19486.5  41010.7
   19741.6  41380.5
   20000.0  41737.9
