 Be Density=1.448, Angle=90.deg
 Photon Energy (eV), Atten Length (microns)
   30.0000  0.149503
   30.3927  0.156571
   30.7905  0.163972
   31.1935  0.171724
   31.6019  0.179842
   32.0155  0.188344
   32.4346  0.197248
   32.8591  0.206573
   33.2892  0.216340
   33.7250  0.226567
   34.1664  0.235943
   34.6136  0.244369
   35.0667  0.252221
   35.5257  0.260324
   35.9907  0.268688
   36.4618  0.277322
   36.9391  0.286232
   37.4226  0.295428
   37.9125  0.304921
   38.4087  0.314718
   38.9115  0.324731
   39.4208  0.329575
   39.9368  0.336134
   40.4596  0.342684
   40.9891  0.349157
   41.5257  0.357881
   42.0692  0.365450
   42.6199  0.373866
   43.1778  0.381867
   43.7429  0.390225
   44.3155  0.398044
   44.8956  0.407342
   45.4832  0.418068
   46.0786  0.428794
   46.6817  0.438054
   47.2928  0.447319
   47.9118  0.456069
   48.5390  0.462229
   49.1743  0.468442
   49.8180  0.477735
   50.4701  0.480503
   51.1307  0.482697
   51.8000  0.484899
   52.4780  0.489116
   53.1649  0.495303
   53.8608  0.505044
   54.5658  0.514161
   55.2801  0.522971
   56.0037  0.533285
   56.7367  0.547884
   57.4794  0.561114
   58.2318  0.573102
   58.9940  0.586589
   59.7662  0.597754
   60.5485  0.607465
   61.3411  0.618348
   62.1440  0.625009
   62.9574  0.633782
   63.7815  0.640768
   64.6164  0.648735
   65.4622  0.655272
   66.3190  0.664684
   67.1871  0.672399
   68.0666  0.681423
   68.9575  0.691644
   69.8601  0.704997
   70.7746  0.717159
   71.7010  0.726422
   72.6395  0.736237
   73.5903  0.745105
   74.5536  0.754745
   75.5294  0.762832
   76.5181  0.768501
   77.5197  0.774418
   78.5344  0.780097
   79.5623  0.786507
   80.6038  0.791412
   81.6588  0.796540
   82.7277  0.803501
   83.8106  0.811177
   84.9076  0.821238
   86.0190  0.831243
   87.1450  0.842448
   88.2857  0.854329
   89.4413  0.866601
   90.6120  0.879161
   91.7981  0.891940
   92.9997  0.904910
   94.2170  0.917433
   95.4502  0.929679
   96.6996  0.942045
   97.9654  0.952749
   99.2477  0.965725
   100.547  0.978619
   101.863  0.993127
   103.196  1.00479
   104.547  1.01803
   105.916  1.03411
   107.302  1.03661
   108.706  1.01652
   110.129  0.954427
   111.571  0.758786
   113.031  5.280518E-02
   114.511  5.447206E-02
   116.010  5.222372E-02
   117.528  4.270062E-02
   119.067  3.731417E-02
   120.625  3.566749E-02
   122.204  3.289505E-02
   123.804  3.231532E-02
   125.424  2.813087E-02
   127.066  2.960447E-02
   128.729  3.969222E-02
   130.414  5.307280E-02
   132.121  6.480652E-02
   133.851  6.741877E-02
   135.603  6.824107E-02
   137.378  6.997229E-02
   139.176  7.231700E-02
   140.998  7.248648E-02
   142.843  7.244928E-02
   144.713  7.354781E-02
   146.607  7.482559E-02
   148.526  7.450694E-02
   150.470  7.460035E-02
   152.440  7.525800E-02
   154.435  7.503577E-02
   156.457  7.401192E-02
   158.505  7.351786E-02
   160.579  7.445994E-02
   162.681  7.757896E-02
   164.811  8.373501E-02
   166.968  9.028471E-02
   169.154  9.659679E-02
   171.368  0.100547
   173.611  0.104857
   175.883  0.109034
   178.185  0.115600
   180.518  0.119872
   182.881  0.122715
   185.275  0.125469
   187.700  0.128354
   190.157  0.130040
   192.646  0.132754
   195.167  0.136515
   197.722  0.139745
   200.310  0.142421
   202.932  0.144890
   205.588  0.147767
   208.279  0.152133
   211.006  0.156551
   213.768  0.161906
   216.566  0.166531
   219.400  0.172055
   222.272  0.176730
   225.182  0.181504
   228.129  0.188616
   231.115  0.196977
   234.140  0.207090
   237.205  0.214352
   240.310  0.221320
   243.456  0.227938
   246.642  0.234495
   249.871  0.237682
   253.141  0.245560
   256.455  0.254193
   259.812  0.263128
   263.213  0.272381
   266.658  0.281958
   270.148  0.291871
   273.685  0.302134
   277.267  0.312757
   280.896  0.323753
   284.573  0.335136
   288.298  0.346918
   292.072  0.359115
   295.895  0.371743
   299.768  0.384812
   303.692  0.398344
   307.667  0.412348
   311.694  0.426845
   315.774  0.441794
   319.907  0.457036
   324.095  0.472808
   328.337  0.489119
   332.635  0.505995
   336.989  0.523453
   341.400  0.541514
   345.868  0.560199
   350.396  0.579528
   354.982  0.599522
   359.629  0.620208
   364.336  0.641609
   369.105  0.663745
   373.936  0.686648
   378.831  0.710340
   383.790  0.734850
   388.813  0.760403
   393.903  0.787803
   399.059  0.816191
   404.282  0.846259
   409.574  0.877715
   414.935  0.910340
   420.367  0.944178
   425.869  0.979277
   431.443  1.01568
   437.091  1.05343
   442.812  1.09259
   448.608  1.13320
   454.480  1.17532
   460.429  1.21901
   466.456  1.26432
   472.562  1.31132
   478.747  1.36006
   485.014  1.41061
   491.363  1.46305
   497.794  1.51744
   504.310  1.57384
   510.911  1.63234
   517.599  1.69302
   524.374  1.75595
   531.238  1.82122
   538.191  1.88892
   545.236  1.95913
   552.373  2.03195
   559.603  2.10748
   566.928  2.18740
   574.349  2.27075
   581.867  2.35729
   589.483  2.44711
   597.199  2.54037
   605.016  2.63717
   612.936  2.73767
   620.959  2.84199
   629.087  2.95029
   637.321  3.06272
   645.663  3.18596
   654.115  3.31469
   662.677  3.44861
   671.351  3.58620
   680.139  3.72316
   689.041  3.85718
   698.061  3.99598
   707.198  4.14495
   716.455  4.30430
   725.833  4.46998
   735.334  4.64501
   744.959  4.82693
   754.710  5.01596
   764.589  5.21240
   774.597  5.41653
   784.736  5.62865
   795.008  5.84909
   805.414  6.07814
   815.956  6.31616
   826.637  6.56351
   837.457  6.82059
   848.419  7.08768
   859.524  7.36524
   870.775  7.65367
   882.173  7.95294
   893.720  8.26259
   905.419  8.58423
   917.270  8.91847
   929.277  9.26569
   941.441  9.62808
   953.764  10.0085
   966.248  10.4039
   978.896  10.8149
   991.709  11.2422
   1004.69  11.6863
   1017.84  12.1479
   1031.16  12.6279
   1044.66  13.1267
   1058.34  13.6454
   1072.19  14.1846
   1086.22  14.7449
   1100.44  15.3274
   1114.85  15.9328
   1129.44  16.5622
   1144.22  17.2166
   1159.20  17.8969
   1174.37  18.6039
   1189.74  19.3387
   1205.32  20.1026
   1221.09  20.8968
   1237.08  21.7223
   1253.27  22.5804
   1269.68  23.4725
   1286.29  24.3997
   1303.13  25.3636
   1320.19  26.3655
   1337.47  27.4070
   1354.98  28.4897
   1372.71  29.6159
   1390.68  30.7870
   1408.88  32.0044
   1427.33  33.2697
   1446.01  34.5849
   1464.94  35.9525
   1484.11  37.3739
   1503.54  38.8513
   1523.22  40.3976
   1543.16  42.0297
   1563.36  43.7273
   1583.82  45.4935
   1604.55  47.3309
   1625.55  49.2425
   1646.83  51.2312
   1668.39  53.3003
   1690.23  55.4534
   1712.35  57.6930
   1734.76  60.0228
   1757.47  62.4468
   1780.48  64.9687
   1803.78  67.5922
   1827.39  70.3214
   1851.31  73.1607
   1875.54  76.1146
   1900.09  79.1879
   1924.97  82.3849
   1950.16  85.7107
   1975.69  89.1707
   2001.55  92.7706
   2027.75  96.5235
   2054.29  100.501
   2081.18  104.642
   2108.42  108.954
   2136.02  113.443
   2163.98  118.117
   2192.31  122.983
   2221.00  128.049
   2250.07  133.323
   2279.53  138.815
   2309.36  144.533
   2339.59  150.484
   2370.22  156.681
   2401.24  163.132
   2432.67  169.848
   2464.51  176.840
   2496.77  184.119
   2529.46  191.697
   2562.56  199.586
   2596.11  207.797
   2630.09  216.347
   2664.52  225.248
   2699.39  234.512
   2734.73  244.157
   2770.52  254.196
   2806.79  264.647
   2843.53  275.525
   2880.75  286.849
   2918.46  298.634
   2956.66  310.901
   2995.36  323.670
   3034.57  337.029
   3074.29  351.137
   3114.53  365.828
   3155.29  381.132
   3196.60  397.073
   3238.44  413.676
   3280.83  430.966
   3323.77  448.974
   3367.28  467.733
   3411.35  487.268
   3456.01  507.612
   3501.24  528.799
   3547.07  550.864
   3593.50  573.839
   3640.54  597.761
   3688.19  622.673
   3736.47  648.612
   3785.38  675.618
   3834.93  703.735
   3885.13  733.005
   3935.98  763.477
   3987.50  795.200
   4039.69  828.231
   4092.57  862.616
   4146.14  898.751
   4200.41  936.458
   4255.39  975.722
   4311.09  1016.60
   4367.52  1059.16
   4424.69  1103.47
   4482.61  1149.60
   4541.29  1197.61
   4600.73  1247.59
   4660.95  1299.60
   4721.96  1353.73
   4783.77  1410.05
   4846.39  1468.65
   4909.82  1529.63
   4974.09  1593.06
   5039.20  1659.05
   5105.16  1727.69
   5171.98  1799.08
   5239.68  1873.51
   5308.27  1951.40
   5377.75  2032.41
   5448.14  2116.65
   5519.45  2204.23
   5591.70  2295.27
   5664.89  2389.90
   5739.04  2488.25
   5814.17  2590.42
   5890.27  2696.58
   5967.37  2806.84
   6045.48  2921.36
   6124.61  3040.28
   6204.78  3163.74
   6286.00  3291.87
   6368.28  3425.30
   6451.64  3564.23
   6536.09  3708.35
   6621.64  3857.84
   6708.31  4012.82
   6796.12  4173.48
   6885.08  4339.98
   6975.20  4512.45
   7066.50  4691.07
   7159.00  4876.02
   7252.71  5067.40
   7347.64  5265.39
   7443.82  5470.15
   7541.26  5681.82
   7639.97  5900.54
   7739.97  6126.49
   7841.28  6359.79
   7943.92  6600.51
   8047.90  6848.98
   8153.25  7105.48
   8259.97  7369.83
   8368.09  7643.27
   8477.62  7925.93
   8588.59  8216.88
   8701.01  8516.16
   8814.90  8823.84
   8930.29  9139.99
   9047.18  9464.61
   9165.60  9797.66
   9285.58  10139.2
   9407.12  10489.1
   9530.25  10847.4
   9655.00  11214.0
   9781.38  11588.8
   9909.41  11971.6
   10039.1  12363.4
   10170.5  12765.4
   10303.7  13175.5
   10438.5  13593.3
   10575.2  14018.8
   10713.6  14451.7
   10853.8  14891.6
   10995.9  15338.5
   11139.8  15791.8
   11285.6  16251.1
   11433.4  16716.3
   11583.0  17186.9
   11734.6  17662.3
   11888.2  18142.2
   12043.8  18626.2
   12201.5  19113.5
   12361.2  19604.1
   12523.0  20100.0
   12686.9  20599.2
   12853.0  21099.9
   13021.2  21601.3
   13191.7  22102.9
   13364.3  22604.1
   13539.3  23104.3
   13716.5  23602.8
   13896.0  24098.9
   14077.9  24592.3
   14262.2  25082.1
   14448.9  25567.8
   14638.0  26048.8
   14829.6  26524.5
   15023.7  26997.0
   15220.4  27484.4
   15419.6  27966.5
   15621.5  28443.0
   15825.9  28913.4
   16033.1  29377.2
   16243.0  29834.1
   16455.6  30285.8
   16671.0  30730.6
   16889.2  31167.3
   17110.2  31595.1
   17334.2  32014.2
   17561.1  32424.1
   17791.0  32824.5
   18023.8  33215.2
   18259.8  33596.0
   18498.8  33966.8
   18740.9  34327.2
   18986.2  34677.4
   19234.8  35017.1
   19486.5  35346.3
   19741.6  35664.9
   20000.0  35973.0
