 Be Density=0.248, Angle=90.deg
 Photon Energy (eV), Atten Length (microns)
   30.0000  0.872905
   30.3506  0.909683
   30.7053  0.948005
   31.0641  0.987945
   31.4271  1.02957
   31.7944  1.07295
   32.1659  1.11815
   32.5418  1.16526
   32.9221  1.21435
   33.3068  1.26551
   33.6960  1.31883
   34.0898  1.36853
   34.4882  1.41426
   34.8912  1.45479
   35.2990  1.49647
   35.7115  1.53935
   36.1288  1.58347
   36.5510  1.62885
   36.9781  1.67552
   37.4103  1.72353
   37.8474  1.77293
   38.2897  1.82373
   38.7372  1.87599
   39.1899  1.91498
   39.6478  1.93930
   40.1112  1.97712
   40.5799  2.00817
   41.0541  2.04285
   41.5339  2.09043
   42.0192  2.12978
   42.5103  2.17546
   43.0071  2.21162
   43.5096  2.25901
   44.0181  2.29742
   44.5325  2.34732
   45.0529  2.39644
   45.5794  2.45133
   46.1120  2.50659
   46.6509  2.55489
   47.1961  2.60319
   47.7476  2.65090
   48.3056  2.69011
   48.8701  2.71116
   49.4412  2.76483
   50.0190  2.79671
   50.6035  2.80811
   51.1948  2.81956
   51.7931  2.83105
   52.3983  2.85166
   53.0107  2.88382
   53.6302  2.92646
   54.2569  2.98180
   54.8909  3.01865
   55.5324  3.07426
   56.1814  3.13425
   56.8379  3.21080
   57.5021  3.27777
   58.1741  3.33911
   58.8539  3.41118
   59.5417  3.47376
   60.2375  3.52449
   60.9414  3.57553
   61.6536  3.62704
   62.3741  3.65965
   63.1030  3.71084
   63.8404  3.74268
   64.5864  3.78650
   65.3412  3.81862
   66.1048  3.87034
   66.8773  3.90838
   67.6588  3.95414
   68.4495  4.00426
   69.2494  4.05788
   70.0586  4.13719
   70.8773  4.19328
   71.7056  4.24164
   72.5436  4.29057
   73.3913  4.34221
   74.2490  4.38894
   75.1166  4.43356
   75.9944  4.47003
   76.8825  4.50236
   77.7810  4.53365
   78.6899  4.56229
   79.6095  4.59348
   80.5398  4.61907
   81.4810  4.64613
   82.4332  4.68023
   83.3965  4.71675
   84.3711  4.76625
   85.3571  4.81860
   86.3545  4.87159
   87.3637  4.93188
   88.3846  4.99429
   89.4175  5.05835
   90.4624  5.12378
   91.5196  5.19025
   92.5891  5.25762
   93.6711  5.32492
   94.7657  5.38850
   95.8732  5.45256
   96.9935  5.51732
   98.1270  5.56782
   99.2737  5.64056
   100.434  5.71082
   101.608  5.78122
   102.795  5.84556
   103.996  5.90294
   105.211  5.99572
   106.441  6.06139
   107.685  6.04185
   108.943  5.90837
   110.216  5.52919
   111.504  4.64249
   112.807  0.435096
   114.126  0.288903
   115.459  0.317978
   116.809  0.291282
   118.174  0.213878
   119.555  0.217173
   120.952  0.209864
   122.365  0.192668
   123.795  0.188857
   125.242  0.167229
   126.705  0.167178
   128.186  0.211000
   129.684  0.275582
   131.200  0.351687
   132.733  0.388134
   134.284  0.394182
   135.853  0.398756
   137.441  0.409094
   139.047  0.421588
   140.672  0.424258
   142.316  0.422296
   143.979  0.426479
   145.661  0.433614
   147.364  0.436393
   149.086  0.435650
   150.828  0.436902
   152.590  0.439145
   154.374  0.438198
   156.178  0.432927
   158.003  0.428118
   159.849  0.431901
   161.717  0.442423
   163.607  0.467703
   165.519  0.501396
   167.453  0.535563
   169.410  0.567958
   171.390  0.587216
   173.393  0.609310
   175.419  0.629896
   177.469  0.659877
   179.543  0.691176
   181.641  0.705354
   183.764  0.722287
   185.911  0.736688
   188.084  0.753168
   190.282  0.760133
   192.505  0.774310
   194.755  0.795161
   197.031  0.810576
   199.333  0.823610
   201.663  0.839858
   204.019  0.851360
   206.403  0.869560
   208.816  0.893781
   211.256  0.916955
   213.724  0.944886
   216.222  0.968714
   218.749  0.997317
   221.305  1.02067
   223.891  1.05174
   226.508  1.07614
   229.155  1.12159
   231.833  1.16872
   234.542  1.21630
   237.283  1.25308
   240.056  1.28708
   242.861  1.32450
   245.699  1.36302
   248.570  1.38193
   251.475  1.40904
   254.414  1.45298
   257.387  1.49853
   260.395  1.54551
   263.438  1.59397
   266.516  1.64394
   269.631  1.69549
   272.782  1.74865
   275.969  1.80348
   279.194  1.86002
   282.457  1.91834
   285.758  1.97848
   289.097  2.04051
   292.476  2.10449
   295.894  2.17048
   299.351  2.23852
   302.850  2.30872
   306.389  2.38110
   309.969  2.45574
   313.592  2.53275
   317.256  2.61121
   320.964  2.69155
   324.714  2.77438
   328.509  2.85973
   332.348  2.94772
   336.232  3.03842
   340.161  3.13191
   344.136  3.22828
   348.158  3.32762
   352.226  3.43000
   356.342  3.53553
   360.507  3.64432
   364.720  3.75646
   368.982  3.87204
   373.294  3.99119
   377.656  4.11400
   382.069  4.24058
   386.534  4.37107
   391.051  4.50967
   395.621  4.65458
   400.244  4.80414
   404.922  4.96302
   409.654  5.12751
   414.441  5.29745
   419.284  5.47303
   424.184  5.65443
   429.141  5.84185
   434.156  6.03546
   439.229  6.23550
   444.362  6.44216
   449.555  6.65569
   454.808  6.87627
   460.123  7.10418
   465.500  7.33965
   470.940  7.58291
   476.444  7.83424
   482.011  8.09389
   487.644  8.36215
   493.343  8.63932
   499.108  8.92565
   504.941  9.22148
   510.841  9.52712
   516.811  9.84288
   522.851  10.1691
   528.961  10.5061
   535.142  10.8544
   541.396  11.2141
   547.723  11.5858
   554.123  11.9698
   560.599  12.3665
   567.150  12.7860
   573.778  13.2204
   580.483  13.6696
   587.266  14.1340
   594.129  14.6142
   601.072  15.1108
   608.096  15.6242
   615.203  16.1551
   622.392  16.7040
   629.665  17.2715
   637.024  17.8583
   644.468  18.4972
   651.999  19.1635
   659.618  19.8537
   667.327  20.5688
   675.125  21.2798
   683.015  21.9895
   690.996  22.6951
   699.071  23.4234
   707.241  24.2054
   715.506  25.0351
   723.867  25.8933
   732.326  26.7946
   740.884  27.7301
   749.542  28.6983
   758.301  29.7004
   767.163  30.7374
   776.128  31.8106
   785.198  32.9213
   794.374  34.0708
   803.657  35.2603
   813.048  36.4913
   822.550  37.7654
   832.162  39.0842
   841.887  40.4489
   851.725  41.8611
   861.678  43.3226
   871.748  44.8352
   881.935  46.3982
   892.242  48.0088
   902.668  49.6750
   913.217  51.3994
   923.889  53.1837
   934.686  55.0295
   945.608  56.9604
   956.659  58.9667
   967.838  61.0438
   979.148  63.1936
   990.591  65.4194
   1002.17  67.7238
   1013.88  70.1088
   1025.73  72.5781
   1037.71  75.1345
   1049.84  77.7808
   1062.11  80.5213
   1074.52  83.3575
   1087.08  86.2933
   1099.78  89.3326
   1112.63  92.4782
   1125.64  95.7352
   1138.79  99.1075
   1152.10  102.599
   1165.56  106.213
   1179.18  109.953
   1192.96  113.825
   1206.90  117.834
   1221.01  121.984
   1235.28  126.281
   1249.71  130.728
   1264.31  135.332
   1279.09  140.099
   1294.04  145.033
   1309.16  150.141
   1324.46  155.428
   1339.94  160.902
   1355.59  166.569
   1371.44  172.440
   1387.46  178.519
   1403.68  184.813
   1420.08  191.327
   1436.68  198.070
   1453.46  205.052
   1470.45  212.281
   1487.63  219.762
   1505.02  227.508
   1522.61  235.581
   1540.40  244.066
   1558.40  252.854
   1576.61  261.959
   1595.04  271.392
   1613.68  281.164
   1632.53  291.287
   1651.61  301.775
   1670.91  312.641
   1690.44  323.900
   1710.19  335.562
   1730.18  347.643
   1750.40  360.159
   1770.85  373.126
   1791.55  386.559
   1812.48  400.475
   1833.66  414.890
   1855.09  429.824
   1876.77  445.296
   1898.70  461.325
   1920.89  477.929
   1943.34  495.129
   1966.05  512.948
   1989.02  531.410
   2012.27  550.536
   2035.78  570.533
   2059.57  591.491
   2083.64  613.221
   2107.99  635.745
   2132.62  659.095
   2157.55  683.305
   2182.76  708.398
   2208.27  734.414
   2234.07  761.383
   2260.18  789.338
   2286.59  818.325
   2313.31  848.371
   2340.35  879.511
   2367.70  911.800
   2395.37  945.270
   2423.36  979.962
   2451.68  1015.93
   2480.33  1053.21
   2509.31  1091.85
   2538.64  1131.91
   2568.30  1173.43
   2598.32  1216.47
   2628.68  1261.09
   2659.40  1307.34
   2690.48  1355.28
   2721.92  1404.97
   2753.73  1456.48
   2785.91  1509.86
   2818.46  1565.20
   2851.40  1622.55
   2884.72  1681.99
   2918.43  1743.60
   2952.54  1807.45
   2987.04  1873.63
   3021.95  1942.23
   3057.26  2014.60
   3092.99  2089.76
   3129.14  2167.70
   3165.70  2248.54
   3202.70  2332.36
   3240.12  2419.29
   3277.99  2509.43
   3316.29  2602.91
   3355.05  2699.86
   3394.26  2800.39
   3433.92  2904.64
   3474.05  3012.73
   3514.65  3124.82
   3555.72  3241.04
   3597.27  3361.53
   3639.31  3486.46
   3681.84  3615.98
   3724.87  3750.27
   3768.40  3889.49
   3812.43  4033.82
   3856.99  4183.42
   3902.06  4338.50
   3947.66  4499.27
   3993.79  4665.90
   4040.46  4838.68
   4087.68  5017.76
   4135.45  5204.87
   4183.77  5399.57
   4232.67  5601.42
   4282.13  5810.71
   4332.17  6027.66
   4382.80  6252.56
   4434.01  6485.70
   4485.83  6727.37
   4538.25  6977.83
   4591.29  7237.42
   4644.94  7506.46
   4699.22  7785.24
   4754.14  8074.11
   4809.69  8373.43
   4865.90  8683.54
   4922.76  9004.84
   4980.29  9337.68
   5038.49  9682.46
   5097.37  10039.6
   5156.94  10409.5
   5217.20  10792.5
   5278.17  11192.6
   5339.85  11607.2
   5402.25  12036.4
   5465.38  12481.0
   5529.25  12941.2
   5593.87  13417.6
   5659.24  13910.8
   5725.37  14421.2
   5792.28  14949.4
   5859.97  15495.9
   5928.45  16061.3
   5997.73  16646.2
   6067.82  17251.3
   6138.73  17877.0
   6210.46  18523.9
   6283.04  19192.7
   6356.46  19885.9
   6430.75  20605.4
   6505.90  21348.9
   6581.92  22117.1
   6658.84  22910.6
   6736.66  23730.1
   6815.38  24576.3
   6895.02  25449.9
   6975.60  26351.4
   7057.12  27281.5
   7139.59  28241.0
   7223.02  29230.5
   7307.43  30250.4
   7392.82  31301.7
   7479.22  32384.7
   7566.62  33500.2
   7655.04  34648.8
   7744.50  35831.2
   7835.00  37047.7
   7926.56  38298.9
   8019.19  39585.7
   8112.91  40910.2
   8207.71  42271.3
   8303.63  43669.1
   8400.67  45114.9
   8498.84  46599.9
   8598.15  48123.6
   8698.63  49686.1
   8800.29  51287.9
   8903.13  52929.0
   9007.17  54609.6
   9112.43  56329.5
   9218.91  58088.9
   9326.65  59887.7
   9435.64  61725.6
   9545.90  63602.5
   9657.46  65517.8
   9770.32  67471.3
   9884.49  69462.5
   10000.0  71490.8
