 Be Density=1.648, Angle=90.deg
 Photon Energy (eV), Atten Length (microns)
   30.0000  0.131359
   30.3927  0.137570
   30.7905  0.144073
   31.1935  0.150884
   31.6019  0.158017
   32.0155  0.165487
   32.4346  0.173310
   32.8591  0.181504
   33.2892  0.190085
   33.7250  0.199071
   34.1664  0.207309
   34.6136  0.214713
   35.0667  0.221611
   35.5257  0.228731
   35.9907  0.236080
   36.4618  0.243666
   36.9391  0.251495
   37.4226  0.259575
   37.9125  0.267916
   38.4087  0.276524
   38.9115  0.285322
   39.4208  0.289578
   39.9368  0.295341
   40.4596  0.301097
   40.9891  0.306784
   41.5257  0.314448
   42.0692  0.321099
   42.6199  0.328494
   43.1778  0.335524
   43.7429  0.342867
   44.3155  0.349738
   44.8956  0.357907
   45.4832  0.367332
   46.0786  0.376756
   46.6817  0.384892
   47.2928  0.393033
   47.9118  0.400721
   48.5390  0.406133
   49.1743  0.411592
   49.8180  0.419757
   50.4701  0.422190
   51.1307  0.424117
   51.8000  0.426052
   52.4780  0.429757
   53.1649  0.435194
   53.8608  0.443753
   54.5658  0.451763
   55.2801  0.459504
   56.0037  0.468566
   56.7367  0.481393
   57.4794  0.493017
   58.2318  0.503550
   58.9940  0.515401
   59.7662  0.525211
   60.5485  0.533744
   61.3411  0.543306
   62.1440  0.549159
   62.9574  0.556867
   63.7815  0.563005
   64.6164  0.570005
   65.4622  0.575749
   66.3190  0.584019
   67.1871  0.590797
   68.0666  0.598726
   68.9575  0.607706
   69.8601  0.619439
   70.7746  0.630125
   71.7010  0.638264
   72.6395  0.646887
   73.5903  0.654680
   74.5536  0.663150
   75.5294  0.670255
   76.5181  0.675236
   77.5197  0.680435
   78.5344  0.685425
   79.5623  0.691057
   80.6038  0.695367
   81.6588  0.699872
   82.7277  0.705988
   83.8106  0.712734
   84.9076  0.721573
   86.0190  0.730364
   87.1450  0.740209
   88.2857  0.750648
   89.4413  0.761431
   90.6120  0.772467
   91.7981  0.783695
   92.9997  0.795091
   94.2170  0.806094
   95.4502  0.816854
   96.6996  0.827719
   97.9654  0.837124
   99.2477  0.848526
   100.547  0.859854
   101.863  0.872601
   103.196  0.882849
   104.547  0.894486
   105.916  0.908608
   107.302  0.910808
   108.706  0.893151
   110.129  0.838598
   111.571  0.666701
   113.031  4.639678E-02
   114.511  4.786137E-02
   116.010  4.588589E-02
   117.528  3.751851E-02
   119.067  3.278576E-02
   120.625  3.133891E-02
   122.204  2.890294E-02
   123.804  2.839356E-02
   125.424  2.471693E-02
   127.066  2.601169E-02
   128.729  3.487521E-02
   130.414  4.663193E-02
   132.121  5.694165E-02
   133.851  5.923688E-02
   135.603  5.995939E-02
   137.378  6.148051E-02
   139.176  6.354067E-02
   140.998  6.368957E-02
   142.843  6.365689E-02
   144.713  6.462210E-02
   146.607  6.574481E-02
   148.526  6.546483E-02
   150.470  6.554691E-02
   152.440  6.612475E-02
   154.435  6.592949E-02
   156.457  6.502989E-02
   158.505  6.459579E-02
   160.579  6.542353E-02
   162.681  6.816404E-02
   164.811  7.357299E-02
   166.968  7.932783E-02
   169.154  8.487388E-02
   171.368  8.834505E-02
   173.611  9.213205E-02
   175.883  9.580158E-02
   178.185  0.101571
   180.518  0.105324
   182.881  0.107823
   185.275  0.110242
   187.700  0.112777
   190.157  0.114259
   192.646  0.116643
   195.167  0.119947
   197.722  0.122786
   200.310  0.125137
   202.932  0.127306
   205.588  0.129834
   208.279  0.133670
   211.006  0.137552
   213.768  0.142257
   216.566  0.146321
   219.400  0.151175
   222.272  0.155282
   225.182  0.159477
   228.129  0.165725
   231.115  0.173072
   234.140  0.181957
   237.205  0.188338
   240.310  0.194461
   243.456  0.200275
   246.642  0.206036
   249.871  0.208837
   253.141  0.215759
   256.455  0.223345
   259.812  0.231195
   263.213  0.239325
   266.658  0.247739
   270.148  0.256450
   273.685  0.265467
   277.267  0.274801
   280.896  0.284463
   284.573  0.294464
   288.298  0.304816
   292.072  0.315533
   295.895  0.326629
   299.768  0.338112
   303.692  0.350001
   307.667  0.362306
   311.694  0.375044
   315.774  0.388178
   319.907  0.401570
   324.095  0.415428
   328.337  0.429760
   332.635  0.444588
   336.989  0.459928
   341.400  0.475796
   345.868  0.492214
   350.396  0.509197
   354.982  0.526765
   359.629  0.544940
   364.336  0.563744
   369.105  0.583193
   373.936  0.603317
   378.831  0.624134
   383.790  0.645669
   388.813  0.668121
   393.903  0.692196
   399.059  0.717138
   404.282  0.743557
   409.574  0.771196
   414.935  0.799861
   420.367  0.829593
   425.869  0.860433
   431.443  0.892415
   437.091  0.925586
   442.812  0.959991
   448.608  0.995676
   454.480  1.03269
   460.429  1.07107
   466.456  1.11089
   472.562  1.15218
   478.747  1.19501
   485.014  1.23942
   491.363  1.28550
   497.794  1.33328
   504.310  1.38284
   510.911  1.43424
   517.599  1.48755
   524.374  1.54285
   531.238  1.60020
   538.191  1.65968
   545.236  1.72137
   552.373  1.78536
   559.603  1.85172
   566.928  1.92194
   574.349  1.99518
   581.867  2.07121
   589.483  2.15013
   597.199  2.23207
   605.016  2.31713
   612.936  2.40543
   620.959  2.49709
   629.087  2.59225
   637.321  2.69103
   645.663  2.79932
   654.115  2.91242
   662.677  3.03009
   671.351  3.15098
   680.139  3.27132
   689.041  3.38907
   698.061  3.51103
   707.198  3.64192
   716.455  3.78193
   725.833  3.92750
   735.334  4.08130
   744.959  4.24113
   754.710  4.40723
   764.589  4.57983
   774.597  4.75918
   784.736  4.94556
   795.008  5.13925
   805.414  5.34050
   815.956  5.54963
   826.637  5.76697
   837.457  5.99285
   848.419  6.22752
   859.524  6.47140
   870.775  6.72482
   882.173  6.98778
   893.720  7.25985
   905.419  7.54246
   917.270  7.83613
   929.277  8.14121
   941.441  8.45962
   953.764  8.79386
   966.248  9.14129
   978.896  9.50240
   991.709  9.87782
   1004.69  10.2681
   1017.84  10.6737
   1031.16  11.0954
   1044.66  11.5337
   1058.34  11.9894
   1072.19  12.4632
   1086.22  12.9555
   1100.44  13.4673
   1114.85  13.9992
   1129.44  14.5523
   1144.22  15.1272
   1159.20  15.7249
   1174.37  16.3462
   1189.74  16.9917
   1205.32  17.6630
   1221.09  18.3608
   1237.08  19.0861
   1253.27  19.8401
   1269.68  20.6239
   1286.29  21.4386
   1303.13  22.2855
   1320.19  23.1658
   1337.47  24.0809
   1354.98  25.0322
   1372.71  26.0218
   1390.68  27.0507
   1408.88  28.1204
   1427.33  29.2321
   1446.01  30.3877
   1464.94  31.5894
   1484.11  32.8382
   1503.54  34.1364
   1523.22  35.4950
   1543.16  36.9290
   1563.36  38.4205
   1583.82  39.9724
   1604.55  41.5869
   1625.55  43.2665
   1646.83  45.0138
   1668.39  46.8318
   1690.23  48.7236
   1712.35  50.6914
   1734.76  52.7384
   1757.47  54.8683
   1780.48  57.0841
   1803.78  59.3892
   1827.39  61.7873
   1851.31  64.2819
   1875.54  66.8774
   1900.09  69.5777
   1924.97  72.3867
   1950.16  75.3089
   1975.69  78.3490
   2001.55  81.5120
   2027.75  84.8094
   2054.29  88.3039
   2081.18  91.9430
   2108.42  95.7312
   2136.02  99.6755
   2163.98  103.782
   2192.31  108.058
   2221.00  112.509
   2250.07  117.143
   2279.53  121.968
   2309.36  126.992
   2339.59  132.221
   2370.22  137.666
   2401.24  143.335
   2432.67  149.235
   2464.51  155.379
   2496.77  161.775
   2529.46  168.433
   2562.56  175.364
   2596.11  182.579
   2630.09  190.091
   2664.52  197.912
   2699.39  206.051
   2734.73  214.526
   2770.52  223.347
   2806.79  232.530
   2843.53  242.088
   2880.75  252.037
   2918.46  262.392
   2956.66  273.171
   2995.36  284.390
   3034.57  296.127
   3074.29  308.523
   3114.53  321.431
   3155.29  334.879
   3196.60  348.885
   3238.44  363.472
   3280.83  378.664
   3323.77  394.487
   3367.28  410.969
   3411.35  428.133
   3456.01  446.009
   3501.24  464.625
   3547.07  484.011
   3593.50  504.198
   3640.54  525.217
   3688.19  547.106
   3736.47  569.897
   3785.38  593.625
   3834.93  618.330
   3885.13  644.048
   3935.98  670.822
   3987.50  698.695
   4039.69  727.717
   4092.57  757.930
   4146.14  789.679
   4200.41  822.810
   4255.39  857.309
   4311.09  893.227
   4367.52  930.622
   4424.69  969.557
   4482.61  1010.09
   4541.29  1052.27
   4600.73  1096.18
   4660.95  1141.88
   4721.96  1189.44
   4783.77  1238.92
   4846.39  1290.42
   4909.82  1343.99
   4974.09  1399.73
   5039.20  1457.71
   5105.16  1518.02
   5171.98  1580.74
   5239.68  1646.14
   5308.27  1714.58
   5377.75  1785.76
   5448.14  1859.78
   5519.45  1936.73
   5591.70  2016.72
   5664.89  2099.86
   5739.04  2186.28
   5814.17  2276.05
   5890.27  2369.32
   5967.37  2466.20
   6045.48  2566.83
   6124.61  2671.32
   6204.78  2779.79
   6286.00  2892.37
   6368.28  3009.61
   6451.64  3131.68
   6536.09  3258.31
   6621.64  3389.65
   6708.31  3525.83
   6796.12  3666.99
   6885.08  3813.28
   6975.20  3964.82
   7066.50  4121.76
   7159.00  4284.27
   7252.71  4452.42
   7347.64  4626.38
   7443.82  4806.29
   7541.26  4992.28
   7639.97  5184.46
   7739.97  5382.99
   7841.28  5587.97
   7943.92  5799.47
   8047.90  6017.79
   8153.25  6243.17
   8259.97  6475.43
   8368.09  6715.69
   8477.62  6964.05
   8588.59  7219.68
   8701.01  7482.64
   8814.90  7752.99
   8930.29  8030.77
   9047.18  8316.00
   9165.60  8608.62
   9285.58  8908.71
   9407.12  9216.19
   9530.25  9531.00
   9655.00  9853.09
   9781.38  10182.4
   9909.41  10518.8
   10039.1  10863.0
   10170.5  11216.2
   10303.7  11576.5
   10438.5  11943.7
   10575.2  12317.5
   10713.6  12697.8
   10853.8  13084.4
   10995.9  13477.0
   11139.8  13875.3
   11285.6  14278.9
   11433.4  14687.7
   11583.0  15101.1
   11734.6  15518.8
   11888.2  15940.5
   12043.8  16365.7
   12201.5  16793.9
   12361.2  17224.9
   12523.0  17660.6
   12686.9  18099.3
   12853.0  18539.2
   13021.2  18979.8
   13191.7  19420.5
   13364.3  19860.9
   13539.3  20300.4
   13716.5  20738.4
   13896.0  21174.3
   14077.9  21607.8
   14262.2  22038.1
   14448.9  22464.9
   14638.0  22887.5
   14829.6  23305.5
   15023.7  23720.7
   15220.4  24148.9
   15419.6  24572.5
   15621.5  24991.2
   15825.9  25404.5
   16033.1  25812.0
   16243.0  26213.4
   16455.6  26610.3
   16671.0  27001.2
   16889.2  27384.8
   17110.2  27760.8
   17334.2  28129.0
   17561.1  28489.2
   17791.0  28841.0
   18023.8  29184.2
   18259.8  29518.8
   18498.8  29844.6
   18740.9  30161.3
   18986.2  30468.9
   19234.8  30767.5
   19486.5  31056.7
   19741.6  31336.7
   20000.0  31607.3
