 Pb Density=11.35, Angle=90.deg
 Photon Energy (eV), Atten Length (microns)
   30.0000  2.194055E-02
   30.3506  2.155403E-02
   30.7053  2.117435E-02
   31.0641  2.080120E-02
   31.4271  2.043472E-02
   31.7944  2.007476E-02
   32.1659  1.972097E-02
   32.5418  1.937351E-02
   32.9221  1.903221E-02
   33.3068  1.869698E-02
   33.6960  1.835306E-02
   34.0898  1.801417E-02
   34.4882  1.768088E-02
   34.8912  1.735380E-02
   35.2990  1.703276E-02
   35.7115  1.671765E-02
   36.1288  1.640835E-02
   36.5510  1.610478E-02
   36.9781  1.580686E-02
   37.4103  1.551445E-02
   37.8474  1.522741E-02
   38.2897  1.499536E-02
   38.7372  1.477240E-02
   39.1899  1.455452E-02
   39.6478  1.433991E-02
   40.1112  1.412850E-02
   40.5799  1.392020E-02
   41.0541  1.371494E-02
   41.5339  1.351269E-02
   42.0192  1.331345E-02
   42.5103  1.313245E-02
   43.0071  1.299493E-02
   43.5096  1.287698E-02
   44.0181  1.276236E-02
   44.5325  1.264874E-02
   45.0529  1.253616E-02
   45.5794  1.242458E-02
   46.1120  1.231397E-02
   46.6509  1.220431E-02
   47.1961  1.212516E-02
   47.7476  1.206639E-02
   48.3056  1.202065E-02
   48.8701  1.197511E-02
   49.4412  1.192972E-02
   50.0190  1.188452E-02
   50.6035  1.183949E-02
   51.1948  1.179461E-02
   51.7931  1.174989E-02
   52.3983  1.170533E-02
   53.0107  1.166094E-02
   53.6302  1.161674E-02
   54.2569  1.160408E-02
   54.8909  1.161721E-02
   55.5324  1.163267E-02
   56.1814  1.164814E-02
   56.8379  1.166365E-02
   57.5021  1.167920E-02
   58.1741  1.169471E-02
   58.8539  1.171027E-02
   59.5417  1.172587E-02
   60.2375  1.174150E-02
   60.9414  1.181093E-02
   61.6536  1.189808E-02
   62.3741  1.199611E-02
   63.1030  1.209492E-02
   63.8404  1.219454E-02
   64.5864  1.229500E-02
   65.3412  1.239631E-02
   66.1048  1.255216E-02
   66.8773  1.273111E-02
   67.6588  1.292618E-02
   68.4495  1.312419E-02
   69.2494  1.332528E-02
   70.0586  1.352945E-02
   70.8773  1.373657E-02
   71.7056  1.394534E-02
   72.5436  1.415681E-02
   73.3913  1.437125E-02
   74.2490  1.458890E-02
   75.1166  1.480985E-02
   75.9944  1.503413E-02
   76.8825  1.526182E-02
   77.7810  1.549300E-02
   78.6899  1.572767E-02
   79.6095  1.601650E-02
   80.5398  1.638558E-02
   81.4810  1.678241E-02
   82.4332  1.718883E-02
   83.3965  1.760509E-02
   84.3711  1.803146E-02
   85.3571  1.846814E-02
   86.3545  1.891536E-02
   87.3637  1.937341E-02
   88.3846  1.984260E-02
   89.4175  2.033544E-02
   90.4624  2.091755E-02
   91.5196  2.164854E-02
   92.5891  2.240510E-02
   93.6711  2.318809E-02
   94.7657  2.399840E-02
   95.8732  2.483707E-02
   96.9935  2.570500E-02
   98.1270  2.663615E-02
   99.2737  2.765071E-02
   100.434  2.882001E-02
   101.608  3.003891E-02
   102.795  3.130925E-02
   103.996  3.263302E-02
   105.211  3.401322E-02
   106.441  3.545141E-02
   107.685  3.700591E-02
   108.943  3.891209E-02
   110.216  4.117905E-02
   111.504  4.365190E-02
   112.807  4.627296E-02
   114.126  4.905115E-02
   115.459  5.193103E-02
   116.809  5.475935E-02
   118.174  5.721208E-02
   119.555  5.977423E-02
   120.952  6.245102E-02
   122.365  6.524775E-02
   123.795  6.817003E-02
   125.242  7.122246E-02
   126.705  7.438944E-02
   128.186  7.765665E-02
   129.684  7.995512E-02
   131.200  8.229892E-02
   132.733  8.471140E-02
   134.284  8.719531E-02
   135.853  8.975186E-02
   137.441  9.238332E-02
   139.047  9.509199E-02
   140.672  9.787987E-02
   142.316  0.100749
   143.979  0.104018
   145.661  0.108113
   147.364  0.112611
   149.086  0.117315
   150.828  0.122216
   152.590  0.127322
   154.374  0.131972
   156.178  0.136531
   158.003  0.141133
   159.849  0.145891
   161.717  0.150809
   163.607  0.155893
   165.519  0.161146
   167.453  0.164895
   169.410  0.168402
   171.390  0.171877
   173.393  0.175424
   175.419  0.179045
   177.469  0.182098
   179.543  0.184050
   181.641  0.184588
   183.764  0.185097
   185.911  0.185595
   188.084  0.186051
   190.282  0.186125
   192.505  0.186126
   194.755  0.185990
   197.031  0.184142
   199.333  0.181617
   201.663  0.178824
   204.019  0.176074
   206.403  0.171997
   208.816  0.167450
   211.256  0.162656
   213.724  0.158001
   216.222  0.153479
   218.749  0.149085
   221.305  0.144807
   223.891  0.140331
   226.508  0.135790
   229.155  0.131288
   231.833  0.126935
   234.542  0.122727
   237.283  0.118657
   240.056  0.114723
   242.861  0.110920
   245.699  0.107243
   248.570  0.104066
   251.475  0.101641
   254.414  9.940509E-02
   257.387  9.722012E-02
   260.395  9.508295E-02
   263.438  9.299365E-02
   266.516  9.094971E-02
   269.631  8.895069E-02
   272.782  8.700834E-02
   275.969  8.526615E-02
   279.194  8.358280E-02
   282.457  8.194312E-02
   285.758  8.033561E-02
   289.097  7.875972E-02
   292.476  7.721440E-02
   295.894  7.569925E-02
   299.351  7.421437E-02
   302.850  7.276432E-02
   306.389  7.166545E-02
   309.969  7.104777E-02
   313.592  7.043530E-02
   317.256  6.982803E-02
   320.964  6.922594E-02
   324.714  6.862917E-02
   328.509  6.803768E-02
   332.348  6.745124E-02
   336.232  6.686982E-02
   340.161  6.629306E-02
   344.136  6.576072E-02
   348.158  6.524651E-02
   352.226  6.473628E-02
   356.342  6.422981E-02
   360.507  6.372733E-02
   364.720  6.326445E-02
   368.982  6.293386E-02
   373.294  6.297696E-02
   377.656  6.309415E-02
   382.069  6.321152E-02
   386.534  6.332897E-02
   391.051  6.344692E-02
   395.621  6.357531E-02
   400.244  6.372652E-02
   404.922  6.405044E-02
   409.654  6.438920E-02
   414.441  6.472971E-02
   419.284  6.507216E-02
   424.184  6.541644E-02
   429.141  6.576251E-02
   434.156  6.610961E-02
   439.229  6.642835E-02
   444.362  6.674472E-02
   449.555  6.706038E-02
   454.808  6.737746E-02
   460.123  6.769615E-02
   465.500  6.801632E-02
   470.940  6.833795E-02
   476.444  6.866103E-02
   482.011  6.921510E-02
   487.644  6.989034E-02
   493.343  7.063492E-02
   499.108  7.138736E-02
   504.941  7.214788E-02
   510.841  7.291652E-02
   516.811  7.369332E-02
   522.851  7.447831E-02
   528.961  7.527638E-02
   535.142  7.609344E-02
   541.396  7.697973E-02
   547.723  7.787637E-02
   554.123  7.878345E-02
   560.599  7.970107E-02
   567.150  8.062942E-02
   573.778  8.156856E-02
   580.483  8.251861E-02
   587.266  8.347978E-02
   594.129  8.445983E-02
   601.072  8.546256E-02
   608.096  8.649062E-02
   615.203  8.753084E-02
   622.392  8.858375E-02
   629.665  8.964933E-02
   637.024  9.072760E-02
   644.468  9.181885E-02
   651.999  9.287389E-02
   659.618  9.388818E-02
   667.327  9.489135E-02
   675.125  9.590518E-02
   683.015  9.692986E-02
   690.996  9.796558E-02
   699.071  9.901226E-02
   707.241  0.100070
   715.506  0.101139
   723.867  0.102220
   732.326  0.103312
   740.884  0.104507
   749.542  0.105832
   758.301  0.107212
   767.163  0.108610
   776.128  0.110027
   785.198  0.111463
   794.374  0.113023
   803.657  0.114683
   813.048  0.116426
   822.550  0.118196
   832.162  0.119993
   841.887  0.121829
   851.725  0.123710
   861.678  0.125580
   871.748  0.127314
   881.935  0.128978
   892.242  0.130666
   902.668  0.132376
   913.217  0.134109
   923.889  0.135949
   934.686  0.138456
   945.608  0.141156
   956.659  0.144028
   967.838  0.147077
   979.148  0.150194
   990.591  0.153393
   1002.17  0.156676
   1013.88  0.160052
   1025.73  0.163738
   1037.71  0.167565
   1049.84  0.171490
   1062.11  0.175520
   1074.52  0.179647
   1087.08  0.183874
   1099.78  0.188200
   1112.63  0.192630
   1125.64  0.197166
   1138.79  0.201811
   1152.10  0.206567
   1165.56  0.211437
   1179.18  0.216424
   1192.96  0.221530
   1206.90  0.226759
   1221.01  0.232111
   1235.28  0.237588
   1249.71  0.243187
   1264.31  0.248905
   1279.09  0.254747
   1294.04  0.260718
   1309.16  0.266833
   1324.46  0.273093
   1339.94  0.279501
   1355.59  0.286062
   1371.44  0.292781
   1387.46  0.299659
   1403.68  0.306700
   1420.08  0.313911
   1436.68  0.321293
   1453.46  0.328868
   1470.45  0.336653
   1487.63  0.344693
   1505.02  0.353141
   1522.61  0.361911
   1540.40  0.370930
   1558.40  0.380178
   1576.61  0.389657
   1595.04  0.399373
   1613.68  0.409333
   1632.53  0.419551
   1651.61  0.430026
   1670.91  0.440761
   1690.44  0.451764
   1710.19  0.463044
   1730.18  0.474668
   1750.40  0.486766
   1770.85  0.499250
   1791.55  0.512102
   1812.48  0.525323
   1833.66  0.538880
   1855.09  0.552785
   1876.77  0.567051
   1898.70  0.581688
   1920.89  0.596700
   1943.34  0.612101
   1966.05  0.627900
   1989.02  0.644111
   2012.27  0.660525
   2035.78  0.677540
   2059.57  0.695291
   2083.64  0.713602
   2107.99  0.732434
   2132.62  0.751803
   2157.55  0.771731
   2182.76  0.792248
   2208.27  0.813360
   2234.07  0.835079
   2260.18  0.857418
   2286.59  0.880434
   2313.31  0.904113
   2340.35  0.928465
   2367.70  0.953575
   2395.37  0.979426
   2423.36  1.00603
   2451.68  1.03342
   2480.33  1.06155
   2509.31  0.407688
   2538.64  0.419538
   2568.30  0.431715
   2598.32  0.305462
   2628.68  0.314262
   2659.40  0.323316
   2690.48  0.332622
   2721.92  0.342192
   2753.73  0.352034
   2785.91  0.362154
   2818.46  0.372555
   2851.40  0.383248
   2884.72  0.394245
   2918.43  0.405553
   2952.54  0.417181
   2987.04  0.429140
   3021.95  0.441438
   3057.26  0.454089
   3092.99  0.402909
   3129.14  0.414566
   3165.70  0.426557
   3202.70  0.438885
   3240.12  0.451567
   3277.99  0.464617
   3316.29  0.478038
   3355.05  0.491834
   3394.26  0.506021
   3433.92  0.520618
   3474.05  0.535631
   3514.65  0.551077
   3555.72  0.534649
   3597.27  0.549850
   3639.31  0.565486
   3681.84  0.581571
   3724.87  0.598120
   3768.40  0.615122
   3812.43  0.632597
   3856.99  0.623370
   3902.06  0.641087
   3947.66  0.659306
   3993.79  0.678046
   4040.46  0.697333
   4087.68  0.717252
   4135.45  0.737764
   4183.77  0.758889
   4232.67  0.780649
   4282.13  0.803078
   4332.17  0.826181
   4382.80  0.849980
   4434.01  0.874514
   4485.83  0.899806
   4538.25  0.925849
   4591.29  0.952658
   4644.94  0.980322
   4699.22  1.00881
   4754.14  1.03817
   4809.69  1.06842
   4865.90  1.09959
   4922.76  1.13170
   4980.29  1.16478
   5038.49  1.19889
   5097.37  1.23403
   5156.94  1.27023
   5217.20  1.30752
   5278.17  1.34597
   5339.85  1.38557
   5402.25  1.42637
   5465.38  1.46843
   5529.25  1.51175
   5593.87  1.55638
   5659.24  1.60237
   5725.37  1.64977
   5792.28  1.69861
   5859.97  1.74893
   5928.45  1.80076
   5997.73  1.85418
   6067.82  1.90924
   6138.73  1.96597
   6210.46  2.02440
   6283.04  2.08461
   6356.46  2.14666
   6430.75  2.21060
   6505.90  2.27648
   6581.92  2.34435
   6658.84  2.41428
   6736.66  2.48636
   6815.38  2.56060
   6895.02  2.63711
   6975.60  2.71595
   7057.12  2.79718
   7139.59  2.88090
   7223.02  2.96716
   7307.43  3.05602
   7392.82  3.14755
   7479.22  3.24190
   7566.62  3.33913
   7655.04  3.43931
   7744.50  3.54254
   7835.00  3.64888
   7926.56  3.75842
   8019.19  3.87143
   8112.91  3.98781
   8207.71  4.10771
   8303.63  4.23123
   8400.67  4.35851
   8498.84  4.48971
   8598.15  4.62493
   8698.63  4.76420
   8800.29  4.90780
   8903.13  5.05574
   9007.17  5.20807
   9112.43  5.36520
   9218.91  5.52708
   9326.65  5.69389
   9435.64  5.86582
   9545.90  6.04299
   9657.46  6.22555
   9770.32  6.41367
   9884.49  6.60746
   10000.0  6.81239
