 Si Density=2.33, Angle=90.deg
 Photon Energy (eV), Atten Length (microns)
   30.0000  0.230161
   30.3506  0.232352
   30.7053  0.234564
   31.0641  0.236797
   31.4271  0.238866
   31.7944  0.240656
   32.1659  0.241662
   32.5418  0.242672
   32.9221  0.243687
   33.3068  0.244705
   33.6960  0.245728
   34.0898  0.246755
   34.4882  0.247787
   34.8912  0.248823
   35.2990  0.249863
   35.7115  0.250907
   36.1288  0.251956
   36.5510  0.253009
   36.9781  0.254067
   37.4103  0.255129
   37.8474  0.256195
   38.2897  0.257266
   38.7372  0.258342
   39.1899  0.259504
   39.6478  0.261066
   40.1112  0.263255
   40.5799  0.265626
   41.0541  0.268018
   41.5339  0.270431
   42.0192  0.272867
   42.5103  0.275324
   43.0071  0.277803
   43.5096  0.280305
   44.0181  0.282830
   44.5325  0.285377
   45.0529  0.287946
   45.5794  0.290539
   46.1120  0.293258
   46.6509  0.296180
   47.1961  0.299264
   47.7476  0.302382
   48.3056  0.305533
   48.8701  0.308716
   49.4412  0.311932
   50.0190  0.315183
   50.6035  0.318466
   51.1948  0.321784
   51.7931  0.325137
   52.3983  0.328391
   53.0107  0.331386
   53.6302  0.333409
   54.2569  0.335375
   54.8909  0.337353
   55.5324  0.339343
   56.1814  0.341344
   56.8379  0.343357
   57.5021  0.345381
   58.1741  0.347418
   58.8539  0.349467
   59.5417  0.350604
   60.2375  0.349235
   60.9414  0.347506
   61.6536  0.345740
   62.3741  0.343982
   63.1030  0.342234
   63.8404  0.340494
   64.5864  0.338862
   65.3412  0.337409
   66.1048  0.339481
   66.8773  0.341630
   67.6588  0.343792
   68.4495  0.345968
   69.2494  0.348158
   70.0586  0.352156
   70.8773  0.358691
   71.7056  0.369434
   72.5436  0.380499
   73.3913  0.391895
   74.2490  0.403633
   75.1166  0.420551
   75.9944  0.440994
   76.8825  0.464522
   77.7810  0.489307
   78.6899  0.515199
   79.6095  0.535375
   80.5398  0.546025
   81.4810  0.556885
   82.4332  0.567961
   83.3965  0.579091
   84.3711  0.589971
   85.3571  0.591218
   86.3545  0.591218
   87.3637  0.591218
   88.3846  0.591218
   89.4175  0.591219
   90.4624  0.590726
   91.5196  0.589370
   92.5891  0.585297
   93.6711  0.581200
   94.7657  0.577132
   95.8732  0.573093
   96.9935  0.567789
   98.1270  0.559468
   99.2737  0.547996
   100.434  8.704364E-02
   101.608  6.100323E-02
   102.795  7.849100E-02
   103.996  8.932834E-02
   105.211  8.809276E-02
   106.441  7.206118E-02
   107.685  6.606840E-02
   108.943  6.279314E-02
   110.216  6.071305E-02
   111.504  5.686936E-02
   112.807  5.457726E-02
   114.126  5.267214E-02
   115.459  4.931709E-02
   116.809  4.575613E-02
   118.174  4.335581E-02
   119.555  4.244426E-02
   120.952  4.158383E-02
   122.365  4.098310E-02
   123.795  4.081523E-02
   125.242  4.070780E-02
   126.705  4.046618E-02
   128.186  4.014522E-02
   129.684  3.963671E-02
   131.200  3.899493E-02
   132.733  3.885408E-02
   134.284  3.987851E-02
   135.853  4.192217E-02
   137.441  4.352288E-02
   139.047  4.384331E-02
   140.672  4.386639E-02
   142.316  4.440081E-02
   143.979  4.425715E-02
   145.661  4.389604E-02
   147.364  4.375330E-02
   149.086  4.395697E-02
   150.828  4.403956E-02
   152.590  4.316272E-02
   154.374  4.546961E-02
   156.178  4.618438E-02
   158.003  4.585131E-02
   159.849  4.537756E-02
   161.717  4.463986E-02
   163.607  4.402928E-02
   165.519  4.403681E-02
   167.453  4.404675E-02
   169.410  4.436110E-02
   171.390  4.559569E-02
   173.393  4.764498E-02
   175.419  5.067853E-02
   177.469  5.276148E-02
   179.543  5.446782E-02
   181.641  5.503748E-02
   183.764  5.600954E-02
   185.911  5.699902E-02
   188.084  5.801618E-02
   190.282  5.908111E-02
   192.505  6.018230E-02
   194.755  6.130386E-02
   197.031  6.244650E-02
   199.333  6.361042E-02
   201.663  6.478864E-02
   204.019  6.593315E-02
   206.403  6.706948E-02
   208.816  6.821506E-02
   211.256  6.938018E-02
   213.724  7.056527E-02
   216.222  7.177062E-02
   218.749  7.300700E-02
   221.305  7.430352E-02
   223.891  7.584956E-02
   226.508  7.747428E-02
   229.155  7.913393E-02
   231.833  8.082917E-02
   234.542  8.256066E-02
   237.283  8.432920E-02
   240.056  8.613544E-02
   242.861  8.798049E-02
   245.699  8.986519E-02
   248.570  9.181507E-02
   251.475  9.393440E-02
   254.414  9.612256E-02
   257.387  9.836742E-02
   260.395  0.100665
   263.438  0.103016
   266.516  0.105422
   269.631  0.107884
   272.782  0.110403
   275.969  0.112982
   279.194  0.115620
   282.457  0.118320
   285.758  0.121084
   289.097  0.123912
   292.476  0.126805
   295.894  0.129767
   299.351  0.132879
   302.850  0.136110
   306.389  0.139448
   309.969  0.142868
   313.592  0.146372
   317.256  0.149961
   320.964  0.153639
   324.714  0.157407
   328.509  0.161267
   332.348  0.165222
   336.232  0.169274
   340.161  0.173426
   344.136  0.177679
   348.158  0.182036
   352.226  0.186501
   356.342  0.191075
   360.507  0.195761
   364.720  0.200574
   368.982  0.206077
   373.294  0.211834
   377.656  0.217811
   382.069  0.223956
   386.534  0.230274
   391.051  0.236771
   395.621  0.243452
   400.244  0.250321
   404.922  0.257383
   409.654  0.264645
   414.441  0.272112
   419.284  0.279790
   424.184  0.287684
   429.141  0.295800
   434.156  0.304146
   439.229  0.312727
   444.362  0.321550
   449.555  0.330623
   454.808  0.339951
   460.123  0.349606
   465.500  0.359683
   470.940  0.370324
   476.444  0.381278
   482.011  0.392558
   487.644  0.404171
   493.343  0.416127
   499.108  0.428438
   504.941  0.441113
   510.841  0.454163
   516.811  0.467597
   522.851  0.481430
   528.961  0.495673
   535.142  0.510336
   541.396  0.525434
   547.723  0.540978
   554.123  0.556982
   560.599  0.573459
   567.150  0.590424
   573.778  0.607891
   580.483  0.625875
   587.266  0.645066
   594.129  0.665135
   601.072  0.686020
   608.096  0.707562
   615.203  0.729780
   622.392  0.752696
   629.665  0.776330
   637.024  0.800708
   644.468  0.825850
   651.999  0.851781
   659.618  0.878528
   667.327  0.906116
   675.125  0.934568
   683.015  0.963912
   690.996  0.994179
   699.071  1.02436
   707.241  1.05488
   715.506  1.08589
   723.867  1.11782
   732.326  1.15069
   740.884  1.18451
   749.542  1.21934
   758.301  1.25519
   767.163  1.29210
   776.128  1.33009
   785.198  1.36919
   794.374  1.41008
   803.657  1.45325
   813.048  1.49928
   822.550  1.54676
   832.162  1.59576
   841.887  1.64631
   851.725  1.69845
   861.678  1.75225
   871.748  1.80775
   881.935  1.86501
   892.242  1.92408
   902.668  1.98738
   913.217  2.05450
   923.889  2.12539
   934.686  2.19871
   945.608  2.27457
   956.659  2.35305
   967.838  2.43423
   979.148  2.51823
   990.591  2.60515
   1002.17  2.69512
   1013.88  2.78831
   1025.73  2.88474
   1037.71  2.98452
   1049.84  3.08771
   1062.11  3.19451
   1074.52  3.30500
   1087.08  3.41855
   1099.78  3.53012
   1112.63  3.64168
   1125.64  3.75544
   1138.79  3.87285
   1152.10  3.99395
   1165.56  4.11883
   1179.18  4.24763
   1192.96  4.38050
   1206.90  4.51777
   1221.01  4.65947
   1235.28  4.80572
   1249.71  4.95658
   1264.31  5.11215
   1279.09  5.27259
   1294.04  5.43810
   1309.16  5.60978
   1324.46  5.78700
   1339.94  5.96987
   1355.59  6.15864
   1371.44  6.35333
   1387.46  6.55437
   1403.68  6.76211
   1420.08  6.97685
   1436.68  7.19863
   1453.46  7.42759
   1470.45  7.66384
   1487.63  7.90774
   1505.02  8.16321
   1522.61  8.43101
   1540.40  8.70815
   1558.40  8.99478
   1576.61  9.29094
   1595.04  9.59676
   1613.68  9.91270
   1632.53  10.2391
   1651.61  10.5763
   1670.91  10.9246
   1690.44  11.2843
   1710.19  11.6558
   1730.18  12.0403
   1750.40  12.4486
   1770.85  12.8724
   1791.55  13.3121
   1812.48  13.7686
   1833.66  14.2408
   1855.09  1.29377
   1876.77  1.33023
   1898.70  1.36772
   1920.89  1.40627
   1943.34  1.44593
   1966.05  1.48670
   1989.02  1.52866
   2012.27  1.57194
   2035.78  1.61659
   2059.57  1.66258
   2083.64  1.71001
   2107.99  1.75975
   2132.62  1.81109
   2157.55  1.86408
   2182.76  1.91880
   2208.27  1.97546
   2234.07  2.03392
   2260.18  2.09424
   2286.59  2.15661
   2313.31  2.22110
   2340.35  2.28768
   2367.70  2.35639
   2395.37  2.42756
   2423.36  2.50102
   2451.68  2.57687
   2480.33  2.65528
   2509.31  2.73635
   2538.64  2.82002
   2568.30  2.90642
   2598.32  2.99586
   2628.68  3.08823
   2659.40  3.18360
   2690.48  3.28206
   2721.92  3.38413
   2753.73  3.48948
   2785.91  3.59826
   2818.46  3.71066
   2851.40  3.82693
   2884.72  3.94703
   2918.43  4.07109
   2952.54  4.19950
   2987.04  4.33212
   3021.95  4.46911
   3057.26  4.61069
   3092.99  4.75720
   3129.14  4.90850
   3165.70  5.06480
   3202.70  5.22654
   3240.12  5.39370
   3277.99  5.56641
   3316.29  5.74486
   3355.05  5.92965
   3394.26  6.12052
   3433.92  6.31774
   3474.05  6.52164
   3514.65  6.73257
   3555.72  6.95050
   3597.27  7.17571
   3639.31  7.40884
   3681.84  7.64980
   3724.87  7.89879
   3768.40  8.15612
   3812.43  8.42260
   3856.99  8.69790
   3902.06  8.98247
   3947.66  9.27685
   3993.79  9.58130
   4040.46  9.89599
   4087.68  10.2213
   4135.45  10.5580
   4183.77  10.9061
   4232.67  11.2658
   4282.13  11.6378
   4332.17  12.0228
   4382.80  12.4208
   4434.01  12.8323
   4485.83  13.2581
   4538.25  13.6985
   4591.29  14.1538
   4644.94  14.6247
   4699.22  15.1121
   4754.14  15.6160
   4809.69  16.1371
   4865.90  16.6758
   4922.76  17.2334
   4980.29  17.8098
   5038.49  18.4060
   5097.37  19.0235
   5156.94  19.6621
   5217.20  20.3222
   5278.17  21.0047
   5339.85  21.7113
   5402.25  22.4420
   5465.38  23.1978
   5529.25  23.9800
   5593.87  24.7893
   5659.24  25.6264
   5725.37  26.4924
   5792.28  27.3882
   5859.97  28.3149
   5928.45  29.2737
   5997.73  30.2658
   6067.82  31.2926
   6138.73  32.3546
   6210.46  33.4530
   6283.04  34.5893
   6356.46  35.7647
   6430.75  36.9842
   6505.90  38.2430
   6581.92  39.5453
   6658.84  40.8931
   6736.66  42.2887
   6815.38  43.7326
   6895.02  45.2263
   6975.60  46.7715
   7057.12  48.3712
   7139.59  50.0265
   7223.02  51.7391
   7307.43  53.5109
   7392.82  55.3458
   7479.22  57.2442
   7566.62  59.2082
   7655.04  61.2405
   7744.50  63.3445
   7835.00  65.5215
   7926.56  67.7742
   8019.19  70.1064
   8112.91  72.5196
   8207.71  75.0169
   8303.63  77.6013
   8400.67  80.2767
   8498.84  83.0453
   8598.15  85.9104
   8698.63  88.8764
   8800.29  91.9465
   8903.13  95.1234
   9007.17  98.4103
   9112.43  101.815
   9218.91  105.338
   9326.65  108.983
   9435.64  112.756
   9545.90  116.663
   9657.46  120.707
   9770.32  124.892
   9884.49  129.224
   10000.0  133.707
