 Ru Density=12.41, Angle=90.deg
 Photon Energy (eV), Atten Length (microns)
   30.0000  8.473742E-03
   30.3506  8.697626E-03
   30.7053  8.932192E-03
   31.0641  9.206608E-03
   31.4271  9.493773E-03
   31.7944  9.789903E-03
   32.1659  1.009526E-02
   32.5418  1.041015E-02
   32.9221  1.073486E-02
   33.3068  1.106971E-02
   33.6960  1.141481E-02
   34.0898  1.177038E-02
   34.4882  1.213683E-02
   34.8912  1.251465E-02
   35.2990  1.290309E-02
   35.7115  1.330171E-02
   36.1288  1.371068E-02
   36.5510  1.413218E-02
   36.9781  1.458106E-02
   37.4103  1.505700E-02
   37.8474  1.556268E-02
   38.2897  1.607684E-02
   38.7372  1.659376E-02
   39.1899  1.711606E-02
   39.6478  1.765488E-02
   40.1112  1.817387E-02
   40.5799  1.858254E-02
   41.0541  1.830619E-02
   41.5339  1.698392E-02
   42.0192  1.511726E-02
   42.5103  1.342409E-02
   43.0071  1.127196E-02
   43.5096  9.442731E-03
   44.0181  8.474929E-03
   44.5325  7.883035E-03
   45.0529  7.501280E-03
   45.5794  7.257624E-03
   46.1120  7.078778E-03
   46.6509  6.853937E-03
   47.1961  6.607400E-03
   47.7476  6.427992E-03
   48.3056  6.321279E-03
   48.8701  6.266858E-03
   49.4412  6.258908E-03
   50.0190  6.264152E-03
   50.6035  6.314376E-03
   51.1948  6.339354E-03
   51.7931  6.355642E-03
   52.3983  6.368646E-03
   53.0107  6.386654E-03
   53.6302  6.409965E-03
   54.2569  6.440199E-03
   54.8909  6.495429E-03
   55.5324  6.562746E-03
   56.1814  6.642775E-03
   56.8379  6.744782E-03
   57.5021  6.887600E-03
   58.1741  7.048759E-03
   58.8539  7.219440E-03
   59.5417  7.394269E-03
   60.2375  7.573331E-03
   60.9414  7.769342E-03
   61.6536  8.009144E-03
   62.3741  8.256741E-03
   63.1030  8.508702E-03
   63.8404  8.770010E-03
   64.5864  9.084068E-03
   65.3412  9.433834E-03
   66.1048  9.817487E-03
   66.8773  1.023818E-02
   67.6588  1.068801E-02
   68.4495  1.115962E-02
   69.2494  1.167225E-02
   70.0586  1.228671E-02
   70.8773  1.294069E-02
   71.7056  1.361550E-02
   72.5436  1.431147E-02
   73.3913  1.515352E-02
   74.2490  1.605525E-02
   75.1166  1.703321E-02
   75.9944  1.811435E-02
   76.8825  1.926826E-02
   77.7810  2.053693E-02
   78.6899  2.192674E-02
   79.6095  2.341050E-02
   80.5398  2.507619E-02
   81.4810  2.690469E-02
   82.4332  2.889887E-02
   83.3965  3.116338E-02
   84.3711  3.360600E-02
   85.3571  3.635745E-02
   86.3545  3.971584E-02
   87.3637  4.339517E-02
   88.3846  4.740066E-02
   89.4175  5.175649E-02
   90.4624  5.650562E-02
   91.5196  6.142016E-02
   92.5891  6.663614E-02
   93.6711  7.226294E-02
   94.7657  7.775880E-02
   95.8732  8.350842E-02
   96.9935  8.953662E-02
   98.1270  9.583513E-02
   99.2737  0.101555
   100.434  0.107206
   101.608  0.112848
   102.795  0.117362
   103.996  0.121731
   105.211  0.125611
   106.441  0.128416
   107.685  0.131284
   108.943  0.134134
   110.216  0.136948
   111.504  0.139671
   112.807  0.142448
   114.126  0.145121
   115.459  0.147589
   116.809  0.149491
   118.174  0.151345
   119.555  0.152822
   120.952  0.153240
   122.365  0.153658
   123.795  0.153782
   125.242  0.153541
   126.705  0.152840
   128.186  0.152143
   129.684  0.151435
   131.200  0.150702
   132.733  0.149956
   134.284  0.149214
   135.853  0.148445
   137.441  0.147566
   139.047  0.146684
   140.672  0.145822
   142.316  0.144986
   143.979  0.144155
   145.661  0.143357
   147.364  0.142581
   149.086  0.141824
   150.828  0.141071
   152.590  0.140309
   154.374  0.139536
   156.178  0.138757
   158.003  0.137982
   159.849  0.137252
   161.717  0.136589
   163.607  0.135984
   165.519  0.135381
   167.453  0.134799
   169.410  0.134272
   171.390  0.134022
   173.393  0.133815
   175.419  0.133608
   177.469  0.133401
   179.543  0.133458
   181.641  0.133619
   183.764  0.133786
   185.911  0.133955
   188.084  0.134203
   190.282  0.134538
   192.505  0.134994
   194.755  0.135452
   197.031  0.135911
   199.333  0.136381
   201.663  0.137001
   204.019  0.137624
   206.403  0.138249
   208.816  0.138878
   211.256  0.139591
   213.724  0.140332
   216.222  0.141091
   218.749  0.141854
   221.305  0.142899
   223.891  0.144170
   226.508  0.145667
   229.155  0.147178
   231.833  0.148706
   234.542  0.150340
   237.283  0.152270
   240.056  0.154224
   242.861  0.156203
   245.699  0.158183
   248.570  0.159969
   251.475  0.161732
   254.414  0.163497
   257.387  0.165282
   260.395  0.166670
   263.438  0.167863
   266.516  0.168925
   269.631  0.169994
   272.782  0.168286
   275.969  0.165731
   279.194  0.162887
   282.457  0.146196
   285.758  0.111901
   289.097  9.305365E-02
   292.476  8.281330E-02
   295.894  7.650469E-02
   299.351  7.194036E-02
   302.850  6.897423E-02
   306.389  6.716852E-02
   309.969  5.917286E-02
   313.592  5.349253E-02
   317.256  4.829016E-02
   320.964  4.110648E-02
   324.714  3.525918E-02
   328.509  3.282103E-02
   332.348  3.345298E-02
   336.232  3.344402E-02
   340.161  3.286895E-02
   344.136  3.353383E-02
   348.158  3.337374E-02
   352.226  3.328157E-02
   356.342  3.246649E-02
   360.507  3.177506E-02
   364.720  3.147038E-02
   368.982  3.150175E-02
   373.294  3.184278E-02
   377.656  3.233959E-02
   382.069  3.282760E-02
   386.534  3.326172E-02
   391.051  3.365830E-02
   395.621  3.401686E-02
   400.244  3.432475E-02
   404.922  3.465781E-02
   409.654  3.501049E-02
   414.441  3.538205E-02
   419.284  3.579250E-02
   424.184  3.620049E-02
   429.141  3.660280E-02
   434.156  3.699075E-02
   439.229  3.745031E-02
   444.362  3.795828E-02
   449.555  3.850812E-02
   454.808  3.906079E-02
   460.123  3.589015E-02
   465.500  3.633996E-02
   470.940  3.726302E-02
   476.444  3.711647E-02
   482.011  3.790447E-02
   487.644  3.851413E-02
   493.343  3.884318E-02
   499.108  3.837378E-02
   504.941  3.989606E-02
   510.841  4.076206E-02
   516.811  4.140872E-02
   522.851  4.298130E-02
   528.961  4.493450E-02
   535.142  4.625557E-02
   541.396  4.709069E-02
   547.723  4.773314E-02
   554.123  4.858656E-02
   560.599  4.927728E-02
   567.150  4.994914E-02
   573.778  5.065474E-02
   580.483  5.140190E-02
   587.266  5.217933E-02
   594.129  5.298420E-02
   601.072  5.398806E-02
   608.096  5.544828E-02
   615.203  5.692368E-02
   622.392  5.802357E-02
   629.665  5.880007E-02
   637.024  5.970441E-02
   644.468  6.075818E-02
   651.999  6.158358E-02
   659.618  6.197261E-02
   667.327  6.294124E-02
   675.125  6.430716E-02
   683.015  6.593469E-02
   690.996  6.760347E-02
   699.071  6.931787E-02
   707.241  7.107641E-02
   715.506  7.287568E-02
   723.867  7.468490E-02
   732.326  7.636933E-02
   740.884  7.802540E-02
   749.542  7.971723E-02
   758.301  8.137836E-02
   767.163  8.306807E-02
   776.128  8.481053E-02
   785.198  8.667145E-02
   794.374  8.869630E-02
   803.657  9.079655E-02
   813.048  9.294821E-02
   822.550  9.517602E-02
   832.162  9.746842E-02
   841.887  9.982152E-02
   851.725  0.102231
   861.678  0.104699
   871.748  0.107187
   881.935  0.109690
   892.242  0.112206
   902.668  0.114780
   913.217  0.117413
   923.889  0.120106
   934.686  0.122824
   945.608  0.125587
   956.659  0.128403
   967.838  0.131282
   979.148  0.134225
   990.591  0.137396
   1002.17  0.140841
   1013.88  0.144573
   1025.73  0.148404
   1037.71  0.152335
   1049.84  0.156371
   1062.11  0.160575
   1074.52  0.164917
   1087.08  0.169393
   1099.78  0.173990
   1112.63  0.178712
   1125.64  0.183563
   1138.79  0.188545
   1152.10  0.193660
   1165.56  0.198915
   1179.18  0.204313
   1192.96  0.209857
   1206.90  0.215549
   1221.01  0.221394
   1235.28  0.227397
   1249.71  0.233562
   1264.31  0.239895
   1279.09  0.246399
   1294.04  0.253283
   1309.16  0.260137
   1324.46  0.267176
   1339.94  0.274406
   1355.59  0.281832
   1371.44  0.289463
   1387.46  0.297299
   1403.68  0.305345
   1420.08  0.313606
   1436.68  0.322095
   1453.46  0.330842
   1470.45  0.339884
   1487.63  0.349264
   1505.02  0.359213
   1522.61  0.369681
   1540.40  0.380471
   1558.40  0.391577
   1576.61  0.403006
   1595.04  0.414768
   1613.68  0.426876
   1632.53  0.439338
   1651.61  0.452167
   1670.91  0.465376
   1690.44  0.478968
   1710.19  0.492954
   1730.18  0.507357
   1750.40  0.522255
   1770.85  0.537609
   1791.55  0.553427
   1812.48  0.569724
   1833.66  0.586515
   1855.09  0.603799
   1876.77  0.621592
   1898.70  0.639909
   1920.89  0.658743
   1943.34  0.678135
   1966.05  0.698108
   1989.02  0.718698
   2012.27  0.739779
   2035.78  0.761454
   2059.57  0.783881
   2083.64  0.806951
   2107.99  0.830727
   2132.62  0.855171
   2157.55  0.880322
   2182.76  0.906202
   2208.27  0.932827
   2234.07  0.960213
   2260.18  0.988379
   2286.59  1.01735
   2313.31  1.04714
   2340.35  1.07779
   2367.70  1.10930
   2395.37  1.14169
   2423.36  1.17498
   2451.68  1.20921
   2480.33  1.24439
   2509.31  1.28055
   2538.64  1.31772
   2568.30  1.35590
   2598.32  1.39514
   2628.68  1.43544
   2659.40  1.47685
   2690.48  1.51937
   2721.92  1.56304
   2753.73  1.60788
   2785.91  1.65394
   2818.46  1.70128
   2851.40  0.509050
   2884.72  0.523785
   2918.43  0.538930
   2952.54  0.554525
   2987.04  0.416294
   3021.95  0.428223
   3057.26  0.440484
   3092.99  0.453106
   3129.14  0.466099
   3165.70  0.479464
   3202.70  0.493214
   3240.12  0.450026
   3277.99  0.462535
   3316.29  0.475413
   3355.05  0.488739
   3394.26  0.502505
   3433.92  0.516703
   3474.05  0.531360
   3514.65  0.546488
   3555.72  0.562102
   3597.27  0.578234
   3639.31  0.594899
   3681.84  0.612052
   3724.87  0.629794
   3768.40  0.648133
   3812.43  0.667037
   3856.99  0.686557
   3902.06  0.706702
   3947.66  0.727512
   3993.79  0.749014
   4040.46  0.771172
   4087.68  0.794024
   4135.45  0.817676
   4183.77  0.842077
   4232.67  0.867266
   4282.13  0.893273
   4332.17  0.920121
   4382.80  0.947835
   4434.01  0.976444
   4485.83  1.00599
   4538.25  1.03649
   4591.29  1.06797
   4644.94  1.10050
   4699.22  1.13406
   4754.14  1.16873
   4809.69  1.20453
   4865.90  1.24147
   4922.76  1.27963
   4980.29  1.31902
   5038.49  1.35968
   5097.37  1.40168
   5156.94  1.44506
   5217.20  1.48983
   5278.17  1.53606
   5339.85  1.58382
   5402.25  1.63313
   5465.38  1.68404
   5529.25  1.73660
   5593.87  1.79088
   5659.24  1.84695
   5725.37  1.90480
   5792.28  1.96461
   5859.97  2.02633
   5928.45  2.09005
   5997.73  2.15588
   6067.82  2.22385
   6138.73  2.29406
   6210.46  2.36659
   6283.04  2.44146
   6356.46  2.51876
   6430.75  2.59858
   6505.90  2.68107
   6581.92  2.76622
   6658.84  2.85418
   6736.66  2.94498
   6815.38  3.03873
   6895.02  3.13559
   6975.60  3.23567
   7057.12  3.33901
   7139.59  3.44575
   7223.02  3.55591
   7307.43  3.66966
   7392.82  3.78728
   7479.22  3.90864
   7566.62  4.03397
   7655.04  4.16353
   7744.50  4.29731
   7835.00  4.43531
   7926.56  4.57810
   8019.19  4.72549
   8112.91  4.87750
   8207.71  5.03482
   8303.63  5.19699
   8400.67  5.36459
   8498.84  5.53788
   8598.15  5.71679
   8698.63  5.90140
   8800.29  6.09212
   8903.13  6.28922
   9007.17  6.49281
   9112.43  6.70293
   9218.91  6.91988
   9326.65  7.14389
   9435.64  7.37548
   9545.90  7.61467
   9657.46  7.86166
   9770.32  8.11697
   9884.49  8.38046
   10000.0  8.65264
