 Co Density=8.9, Angle=90.deg
 Photon Energy (eV), Atten Length (microns)
   30.0000  1.086239E-02
   30.3506  1.099862E-02
   30.7053  1.113656E-02
   31.0641  1.127623E-02
   31.4271  1.141766E-02
   31.7944  1.156086E-02
   32.1659  1.170588E-02
   32.5418  1.185269E-02
   32.9221  1.200944E-02
   33.3068  1.218256E-02
   33.6960  1.237655E-02
   34.0898  1.257393E-02
   34.4882  1.277446E-02
   34.8912  1.297817E-02
   35.2990  1.318514E-02
   35.7115  1.339541E-02
   36.1288  1.360904E-02
   36.5510  1.382610E-02
   36.9781  1.404659E-02
   37.4103  1.426330E-02
   37.8474  1.446746E-02
   38.2897  1.467307E-02
   38.7372  1.488149E-02
   39.1899  1.509288E-02
   39.6478  1.530727E-02
   40.1112  1.552471E-02
   40.5799  1.574523E-02
   41.0541  1.596887E-02
   41.5339  1.619571E-02
   42.0192  1.642507E-02
   42.5103  1.665716E-02
   43.0071  1.689216E-02
   43.5096  1.713053E-02
   44.0181  1.737224E-02
   44.5325  1.761736E-02
   45.0529  1.786595E-02
   45.5794  1.811803E-02
   46.1120  1.837361E-02
   46.6509  1.863273E-02
   47.1961  1.889369E-02
   47.7476  1.915824E-02
   48.3056  1.942650E-02
   48.8701  1.969854E-02
   49.4412  1.997438E-02
   50.0190  2.025408E-02
   50.6035  2.053362E-02
   51.1948  2.076830E-02
   51.7931  2.099253E-02
   52.3983  2.120464E-02
   53.0107  2.139974E-02
   53.6302  2.130743E-02
   54.2569  2.119567E-02
   54.8909  2.106206E-02
   55.5324  2.082336E-02
   56.1814  2.045129E-02
   56.8379  1.950363E-02
   57.5021  1.784582E-02
   58.1741  1.543045E-02
   58.8539  1.334200E-02
   59.5417  1.153621E-02
   60.2375  9.974864E-03
   60.9414  9.317718E-03
   61.6536  8.985707E-03
   62.3741  8.890951E-03
   63.1030  9.057317E-03
   63.8404  9.293948E-03
   64.5864  9.555635E-03
   65.3412  9.815811E-03
   66.1048  1.006793E-02
   66.8773  1.032630E-02
   67.6588  1.059133E-02
   68.4495  1.086317E-02
   69.2494  1.114197E-02
   70.0586  1.142137E-02
   70.8773  1.169772E-02
   71.7056  1.195480E-02
   72.5436  1.221753E-02
   73.3913  1.248603E-02
   74.2490  1.276044E-02
   75.1166  1.304086E-02
   75.9944  1.332631E-02
   76.8825  1.359403E-02
   77.7810  1.375453E-02
   78.6899  1.391693E-02
   79.6095  1.408125E-02
   80.5398  1.424751E-02
   81.4810  1.441574E-02
   82.4332  1.458595E-02
   83.3965  1.475816E-02
   84.3711  1.493243E-02
   85.3571  1.510873E-02
   86.3545  1.528711E-02
   87.3637  1.546761E-02
   88.3846  1.565024E-02
   89.4175  1.583503E-02
   90.4624  1.601342E-02
   91.5196  1.617855E-02
   92.5891  1.633759E-02
   93.6711  1.649806E-02
   94.7657  1.666011E-02
   95.8732  1.682373E-02
   96.9935  1.698897E-02
   98.1270  1.715584E-02
   99.2737  1.732433E-02
   100.434  1.749449E-02
   101.608  1.766632E-02
   102.795  1.784383E-02
   103.996  1.803194E-02
   105.211  1.826349E-02
   106.441  1.850103E-02
   107.685  1.874167E-02
   108.943  1.898543E-02
   110.216  1.923236E-02
   111.504  1.948251E-02
   112.807  1.973593E-02
   114.126  1.999263E-02
   115.459  2.025264E-02
   116.809  2.051605E-02
   118.174  2.078288E-02
   119.555  2.105320E-02
   120.952  2.132704E-02
   122.365  2.160442E-02
   123.795  2.188541E-02
   125.242  2.217006E-02
   126.705  2.245146E-02
   128.186  2.272402E-02
   129.684  2.296901E-02
   131.200  2.327062E-02
   132.733  2.361328E-02
   134.284  2.396112E-02
   135.853  2.431407E-02
   137.441  2.467220E-02
   139.047  2.503556E-02
   140.672  2.540421E-02
   142.316  2.577823E-02
   143.979  2.615777E-02
   145.661  2.654295E-02
   147.364  2.693393E-02
   149.086  2.733072E-02
   150.828  2.773332E-02
   152.590  2.814150E-02
   154.374  2.855576E-02
   156.178  2.897620E-02
   158.003  2.940377E-02
   159.849  2.986941E-02
   161.717  3.035212E-02
   163.607  3.085329E-02
   165.519  3.137752E-02
   167.453  3.191100E-02
   169.410  3.245356E-02
   171.390  3.300532E-02
   173.393  3.356641E-02
   175.419  3.413695E-02
   177.469  3.471712E-02
   179.543  3.530706E-02
   181.641  3.590703E-02
   183.764  3.651736E-02
   185.911  3.713959E-02
   188.084  3.777765E-02
   190.282  3.843889E-02
   192.505  3.913118E-02
   194.755  3.985670E-02
   197.031  4.059545E-02
   199.333  4.134770E-02
   201.663  4.211398E-02
   204.019  4.289483E-02
   206.403  4.369369E-02
   208.816  4.451043E-02
   211.256  4.535078E-02
   213.724  4.623717E-02
   216.222  4.714243E-02
   218.749  4.806584E-02
   221.305  4.900727E-02
   223.891  4.996609E-02
   226.508  5.094399E-02
   229.155  5.194139E-02
   231.833  5.295877E-02
   234.542  5.399568E-02
   237.283  5.506105E-02
   240.056  5.615820E-02
   242.861  5.729549E-02
   245.699  5.846816E-02
   248.570  5.966996E-02
   251.475  6.089779E-02
   254.414  6.215051E-02
   257.387  6.342955E-02
   260.395  6.473524E-02
   263.438  6.606784E-02
   266.516  6.742806E-02
   269.631  6.883489E-02
   272.782  7.029482E-02
   275.969  7.179824E-02
   279.194  7.333713E-02
   282.457  7.491115E-02
   285.758  7.652042E-02
   289.097  7.816433E-02
   292.476  7.984331E-02
   295.894  8.156069E-02
   299.351  8.332808E-02
   302.850  8.514567E-02
   306.389  8.701359E-02
   309.969  8.893365E-02
   313.592  9.089870E-02
   317.256  9.290674E-02
   320.964  9.495840E-02
   324.714  9.705365E-02
   328.509  9.921870E-02
   332.348  0.101442
   336.232  0.103724
   340.161  0.106071
   344.136  0.108473
   348.158  0.110930
   352.226  0.113443
   356.342  0.116013
   360.507  0.118665
   364.720  0.121395
   368.982  0.124197
   373.294  0.127067
   377.656  0.130004
   382.069  0.133010
   386.534  0.136095
   391.051  0.139268
   395.621  0.142528
   400.244  0.145877
   404.922  0.149311
   409.654  0.152827
   414.441  0.156430
   419.284  0.160141
   424.184  0.163950
   429.141  0.167862
   434.156  0.171883
   439.229  0.176002
   444.362  0.180223
   449.555  0.184555
   454.808  0.189015
   460.123  0.193591
   465.500  0.198282
   470.940  0.203089
   476.444  0.208014
   482.011  0.213117
   487.644  0.218377
   493.343  0.223788
   499.108  0.229332
   504.941  0.235014
   510.841  0.240834
   516.811  0.246792
   522.851  0.252870
   528.961  0.259063
   535.142  0.265368
   541.396  0.271795
   547.723  0.278376
   554.123  0.285171
   560.599  0.292263
   567.150  0.299601
   573.778  0.307061
   580.483  0.314641
   587.266  0.322376
   594.129  0.330281
   601.072  0.338377
   608.096  0.346673
   615.203  0.355168
   622.392  0.363880
   629.665  0.372863
   637.024  0.382223
   644.468  0.392099
   651.999  0.402377
   659.618  0.413035
   667.327  0.423971
   675.125  0.434683
   683.015  0.445279
   690.996  0.455771
   699.071  0.466389
   707.241  0.477618
   715.506  0.489468
   723.867  0.501968
   732.326  0.514793
   740.884  0.527948
   749.542  0.541438
   758.301  0.555275
   767.163  0.569463
   776.128  0.584015
   785.198  7.451092E-02
   794.374  7.640179E-02
   803.657  7.834047E-02
   813.048  8.032828E-02
   822.550  8.236682E-02
   832.162  8.445735E-02
   841.887  8.659959E-02
   851.725  8.879610E-02
   861.678  9.114745E-02
   871.748  9.362220E-02
   881.935  9.621516E-02
   892.242  9.892686E-02
   902.668  0.100445
   913.217  0.101023
   923.889  0.100813
   934.686  0.100604
   945.608  0.101570
   956.659  0.103537
   967.838  0.106594
   979.148  0.109739
   990.591  0.112966
   1002.17  0.116275
   1013.88  0.119665
   1025.73  0.122983
   1037.71  0.126373
   1049.84  0.129879
   1062.11  0.133523
   1074.52  0.137268
   1087.08  0.141118
   1099.78  0.145077
   1112.63  0.149146
   1125.64  0.153329
   1138.79  0.157631
   1152.10  0.162052
   1165.56  0.166597
   1179.18  0.171271
   1192.96  0.176076
   1206.90  0.181015
   1221.01  0.186093
   1235.28  0.191324
   1249.71  0.196732
   1264.31  0.202334
   1279.09  0.208134
   1294.04  0.214133
   1309.16  0.220302
   1324.46  0.226650
   1339.94  0.233181
   1355.59  0.239902
   1371.44  0.246815
   1387.46  0.253927
   1403.68  0.261243
   1420.08  0.268770
   1436.68  0.276516
   1453.46  0.284493
   1470.45  0.292711
   1487.63  0.301195
   1505.02  0.310016
   1522.61  0.319144
   1540.40  0.328555
   1558.40  0.338246
   1576.61  0.348221
   1595.04  0.358489
   1613.68  0.369060
   1632.53  0.379943
   1651.61  0.391146
   1670.91  0.402676
   1690.44  0.414547
   1710.19  0.426770
   1730.18  0.439428
   1750.40  0.452680
   1770.85  0.466422
   1791.55  0.480631
   1812.48  0.495313
   1833.66  0.510444
   1855.09  0.526037
   1876.77  0.542109
   1898.70  0.558675
   1920.89  0.575747
   1943.34  0.593336
   1966.05  0.611460
   1989.02  0.630130
   2012.27  0.649190
   2035.78  0.669012
   2059.57  0.689725
   2083.64  0.711112
   2107.99  0.733225
   2132.62  0.756068
   2157.55  0.779649
   2182.76  0.803978
   2208.27  0.829110
   2234.07  0.855072
   2260.18  0.881897
   2286.59  0.909599
   2313.31  0.938209
   2340.35  0.967762
   2367.70  0.998269
   2395.37  1.02980
   2423.36  1.06236
   2451.68  1.09594
   2480.33  1.13069
   2509.31  1.16656
   2538.64  1.20360
   2568.30  1.24186
   2598.32  1.28138
   2628.68  1.32219
   2659.40  1.36435
   2690.48  1.40789
   2721.92  1.45287
   2753.73  1.49931
   2785.91  1.54729
   2818.46  1.59684
   2851.40  1.64802
   2884.72  1.70088
   2918.43  1.75549
   2952.54  1.81189
   2987.04  1.87014
   3021.95  1.93031
   3057.26  1.99245
   3092.99  2.05664
   3129.14  2.12294
   3165.70  2.19141
   3202.70  2.26213
   3240.12  2.33516
   3277.99  2.41059
   3316.29  2.48852
   3355.05  2.56900
   3394.26  2.65213
   3433.92  2.73799
   3474.05  2.82663
   3514.65  2.91819
   3555.72  3.01277
   3597.27  3.11044
   3639.31  3.21131
   3681.84  3.31549
   3724.87  3.42309
   3768.40  3.53422
   3812.43  3.64899
   3856.99  3.76750
   3902.06  3.88991
   3947.66  4.01635
   3993.79  4.14688
   4040.46  4.28165
   4087.68  4.42085
   4135.45  4.56459
   4183.77  4.71303
   4232.67  4.86628
   4282.13  5.02451
   4332.17  5.18795
   4382.80  5.35676
   4434.01  5.53092
   4485.83  5.71089
   4538.25  5.89665
   4591.29  6.08831
   4644.94  6.28641
   4699.22  6.49089
   4754.14  6.70197
   4809.69  6.91986
   4865.90  7.14486
   4922.76  7.37717
   4980.29  7.61696
   5038.49  7.86424
   5097.37  8.11977
   5156.94  8.38359
   5217.20  8.65583
   5278.17  8.93678
   5339.85  9.22673
   5402.25  9.52597
   5465.38  9.83488
   5529.25  10.1538
   5593.87  10.4829
   5659.24  10.8225
   5725.37  11.1734
   5792.28  11.5351
   5859.97  11.9082
   5928.45  12.2933
   5997.73  12.6907
   6067.82  13.1007
   6138.73  13.5239
   6210.46  13.9603
   6283.04  14.4105
   6356.46  14.8751
   6430.75  15.3545
   6505.90  15.8487
   6581.92  16.3586
   6658.84  16.8847
   6736.66  17.4272
   6815.38  17.9866
   6895.02  18.5637
   6975.60  19.1589
   7057.12  19.7726
   7139.59  20.4054
   7223.02  21.0581
   7307.43  21.7311
   7392.82  22.4245
   7479.22  23.1397
   7566.62  23.8771
   7655.04  24.6376
   7744.50  3.23307
   7835.00  3.32670
   7926.56  3.42307
   8019.19  3.52276
   8112.91  3.62574
   8207.71  3.73210
   8303.63  3.84200
   8400.67  3.95554
   8498.84  4.07284
   8598.15  4.19403
   8698.63  4.31925
   8800.29  4.44870
   8903.13  4.58238
   9007.17  4.72040
   9112.43  4.86310
   9218.91  5.01057
   9326.65  5.16293
   9435.64  5.32033
   9545.90  5.48307
   9657.46  5.65121
   9770.32  5.82494
   9884.49  6.00433
   10000.0  6.18985
