 Mg Density=1.738, Angle=90.deg
 Photon Energy (eV), Atten Length (microns)
   30.0000  0.612164
   30.3506  0.620758
   30.7053  0.629474
   31.0641  0.638312
   31.4271  0.647274
   31.7944  0.656363
   32.1659  0.665579
   32.5418  0.674925
   32.9221  0.684402
   33.3068  0.694012
   33.6960  0.703756
   34.0898  0.713476
   34.4882  0.722906
   34.8912  0.730358
   35.2990  0.737888
   35.7115  0.745497
   36.1288  0.753185
   36.5510  0.760951
   36.9781  0.768798
   37.4103  0.776726
   37.8474  0.784731
   38.2897  0.792825
   38.7372  0.801001
   39.1899  0.811713
   39.6478  0.829649
   40.1112  0.848832
   40.5799  0.868552
   41.0541  0.888732
   41.5339  0.909378
   42.0192  0.930507
   42.5103  0.951615
   43.0071  0.972625
   43.5096  0.993916
   44.0181  1.01568
   44.5325  1.03791
   45.0529  1.06050
   45.5794  1.08164
   46.1120  1.10166
   46.6509  1.12142
   47.1961  1.14154
   47.7476  1.16202
   48.3056  1.18200
   48.8701  1.16807
   49.4412  0.744598
   50.0190  0.103037
   50.6035  9.192736E-02
   51.1948  9.617633E-02
   51.7931  8.755022E-02
   52.3983  8.758077E-02
   53.0107  8.671638E-02
   53.6302  8.548536E-02
   54.2569  8.238691E-02
   54.8909  7.615803E-02
   55.5324  7.258771E-02
   56.1814  7.027349E-02
   56.8379  6.873301E-02
   57.5021  6.722638E-02
   58.1741  6.549931E-02
   58.8539  6.360646E-02
   59.5417  6.159762E-02
   60.2375  5.965233E-02
   60.9414  5.732232E-02
   61.6536  5.484878E-02
   62.3741  5.233945E-02
   63.1030  4.994514E-02
   63.8404  4.766046E-02
   64.5864  4.548027E-02
   65.3412  4.339960E-02
   66.1048  4.133566E-02
   66.8773  3.931440E-02
   67.6588  3.736220E-02
   68.4495  3.550686E-02
   69.2494  3.410616E-02
   70.0586  3.305126E-02
   70.8773  3.236077E-02
   71.7056  3.218107E-02
   72.5436  3.283104E-02
   73.3913  3.410331E-02
   74.2490  3.593245E-02
   75.1166  3.801187E-02
   75.9944  3.992057E-02
   76.8825  4.122151E-02
   77.7810  4.170366E-02
   78.6899  4.151556E-02
   79.6095  4.115325E-02
   80.5398  4.073185E-02
   81.4810  4.031469E-02
   82.4332  3.990193E-02
   83.3965  3.949332E-02
   84.3711  3.908887E-02
   85.3571  3.868868E-02
   86.3545  3.829252E-02
   87.3637  3.790037E-02
   88.3846  3.751231E-02
   89.4175  3.674427E-02
   90.4624  3.699199E-02
   91.5196  3.724136E-02
   92.5891  3.749239E-02
   93.6711  3.774513E-02
   94.7657  3.799961E-02
   95.8732  3.838519E-02
   96.9935  3.896549E-02
   98.1270  3.988064E-02
   99.2737  4.081729E-02
   100.434  4.104459E-02
   101.608  4.215255E-02
   102.795  4.329043E-02
   103.996  4.445918E-02
   105.211  4.565943E-02
   106.441  4.689177E-02
   107.685  4.815759E-02
   108.943  4.943180E-02
   110.216  5.050507E-02
   111.504  5.116171E-02
   112.807  5.363698E-02
   114.126  5.398724E-02
   115.459  5.433979E-02
   116.809  5.437590E-02
   118.174  5.422312E-02
   119.555  5.394521E-02
   120.952  5.366848E-02
   122.365  5.339357E-02
   123.795  5.318268E-02
   125.242  5.315929E-02
   126.705  5.391949E-02
   128.186  5.469060E-02
   129.684  5.566953E-02
   131.200  5.694979E-02
   132.733  5.961456E-02
   134.284  6.058786E-02
   135.853  6.157700E-02
   137.441  6.294324E-02
   139.047  6.468698E-02
   140.672  6.639826E-02
   142.316  6.736515E-02
   143.979  6.814360E-02
   145.661  6.893110E-02
   147.364  6.972769E-02
   149.086  7.053347E-02
   150.828  7.134860E-02
   152.590  7.217109E-02
   154.374  7.291752E-02
   156.178  7.366483E-02
   158.003  7.441636E-02
   159.849  7.517559E-02
   161.717  7.594259E-02
   163.607  7.690434E-02
   165.519  7.824244E-02
   167.453  8.034121E-02
   169.410  8.249705E-02
   171.390  8.471059E-02
   173.393  8.698326E-02
   175.419  8.931692E-02
   177.469  9.170245E-02
   179.543  9.403738E-02
   181.641  9.630565E-02
   183.764  9.862865E-02
   185.911  0.101008
   188.084  0.103593
   190.282  0.107499
   192.505  0.109608
   194.755  0.111759
   197.031  0.113952
   199.333  0.116188
   201.663  0.118468
   204.019  0.120793
   206.403  0.123163
   208.816  0.125580
   211.256  0.128074
   213.724  0.130894
   216.222  0.134119
   218.749  0.137546
   221.305  0.141061
   223.891  0.144664
   226.508  0.148360
   229.155  0.152151
   231.833  0.156039
   234.542  0.160026
   237.283  0.164114
   240.056  0.168307
   242.861  0.172607
   245.699  0.177017
   248.570  0.181540
   251.475  0.186179
   254.414  0.190936
   257.387  0.195814
   260.395  0.200817
   263.438  0.205947
   266.516  0.211210
   269.631  0.216606
   272.782  0.222140
   275.969  0.227815
   279.194  0.233636
   282.457  0.239676
   285.758  0.246149
   289.097  0.253253
   292.476  0.260563
   295.894  0.268083
   299.351  0.275821
   302.850  0.283782
   306.389  0.291973
   309.969  0.300400
   313.592  0.309070
   317.256  0.317991
   320.964  0.327169
   324.714  0.336612
   328.509  0.346328
   332.348  0.356324
   336.232  0.366609
   340.161  0.377190
   344.136  0.388077
   348.158  0.399278
   352.226  0.410802
   356.342  0.422658
   360.507  0.434858
   364.720  0.447409
   368.982  0.460323
   373.294  0.473609
   377.656  0.487279
   382.069  0.501342
   386.534  0.515813
   391.051  0.530701
   395.621  0.546017
   400.244  0.561777
   404.922  0.577992
   409.654  0.594674
   414.441  0.611839
   419.284  0.629498
   424.184  0.647667
   429.141  0.666361
   434.156  0.685593
   439.229  0.705866
   444.362  0.727200
   449.555  0.749628
   454.808  0.772749
   460.123  0.796583
   465.500  0.821151
   470.940  0.846476
   476.444  0.872585
   482.011  0.899497
   487.644  0.927237
   493.343  0.955834
   499.108  0.985319
   504.941  1.01571
   510.841  1.04703
   516.811  1.07932
   522.851  1.11261
   528.961  1.14693
   535.142  1.18236
   541.396  1.21917
   547.723  1.26120
   554.123  1.30541
   560.599  1.35042
   567.150  1.39279
   573.778  1.43648
   580.483  1.48156
   587.266  1.52804
   594.129  1.57598
   601.072  1.62543
   608.096  1.67642
   615.203  1.72901
   622.392  1.78327
   629.665  1.83921
   637.024  1.89691
   644.468  1.95644
   651.999  2.01788
   659.618  2.08130
   667.327  2.14677
   675.125  2.21431
   683.015  2.28396
   690.996  2.35581
   699.071  2.43000
   707.241  2.50708
   715.506  2.59171
   723.867  2.68067
   732.326  2.77269
   740.884  2.86786
   749.542  2.96629
   758.301  3.06885
   767.163  3.17633
   776.128  3.28971
   785.198  3.40713
   794.374  3.52271
   803.657  3.62776
   813.048  3.73341
   822.550  3.84199
   832.162  3.95373
   841.887  4.06872
   851.725  4.20878
   861.678  4.37144
   871.748  4.55417
   881.935  4.74454
   892.242  4.94287
   902.668  5.14319
   913.217  5.34373
   923.889  5.54968
   934.686  5.76359
   945.608  5.98574
   956.659  6.21646
   967.838  6.45606
   979.148  6.70492
   990.591  6.96526
   1002.17  7.23965
   1013.88  7.55877
   1025.73  7.89272
   1037.71  8.24143
   1049.84  8.60549
   1062.11  8.98549
   1074.52  9.38239
   1087.08  9.79783
   1099.78  10.2353
   1112.63  10.7321
   1125.64  11.2602
   1138.79  11.8141
   1152.10  12.3956
   1165.56  13.0054
   1179.18  13.6452
   1192.96  14.3147
   1206.90  14.9927
   1221.01  15.6879
   1235.28  16.4092
   1249.71  17.1639
   1264.31  17.9532
   1279.09  18.7787
   1294.04  19.6421
   1309.16  0.980720
   1324.46  1.00923
   1339.94  1.03867
   1355.59  1.06897
   1371.44  1.10015
   1387.46  1.13224
   1403.68  1.16527
   1420.08  1.19927
   1436.68  1.23426
   1453.46  1.27027
   1470.45  1.30730
   1487.63  1.34539
   1505.02  1.38457
   1522.61  1.42485
   1540.40  1.46631
   1558.40  1.50897
   1576.61  1.55286
   1595.04  1.59803
   1613.68  1.64452
   1632.53  1.69235
   1651.61  1.74157
   1670.91  1.79222
   1690.44  1.84436
   1710.19  1.89803
   1730.18  1.95331
   1750.40  2.01212
   1770.85  2.07300
   1791.55  2.13594
   1812.48  2.20105
   1833.66  2.26816
   1855.09  2.33731
   1876.77  2.40857
   1898.70  2.48200
   1920.89  2.55766
   1943.34  2.63563
   1966.05  2.71599
   1989.02  2.79883
   2012.27  2.88330
   2035.78  2.97087
   2059.57  3.06316
   2083.64  3.15856
   2107.99  3.25718
   2132.62  3.35901
   2157.55  3.46434
   2182.76  3.57321
   2208.27  3.68567
   2234.07  3.80191
   2260.18  3.92213
   2286.59  4.04641
   2313.31  4.17485
   2340.35  4.30759
   2367.70  4.44489
   2395.37  4.58680
   2423.36  4.73320
   2451.68  4.88487
   2480.33  5.04178
   2509.31  5.20386
   2538.64  5.37134
   2568.30  5.54454
   2598.32  5.72362
   2628.68  5.90852
   2659.40  6.09996
   2690.48  6.29789
   2721.92  6.50256
   2753.73  6.71418
   2785.91  6.93300
   2818.46  7.15927
   2851.40  7.39322
   2884.72  7.63515
   2918.43  7.88534
   2952.54  8.14408
   2987.04  8.41161
   3021.95  8.68834
   3057.26  8.97450
   3092.99  9.27047
   3129.14  9.57656
   3165.70  9.89315
   3202.70  10.2206
   3240.12  10.5592
   3277.99  10.9095
   3316.29  11.2718
   3355.05  11.6463
   3394.26  12.0341
   3433.92  12.4350
   3474.05  12.8497
   3514.65  13.2786
   3555.72  13.7224
   3597.27  14.1815
   3639.31  14.6566
   3681.84  15.1478
   3724.87  15.6558
   3768.40  16.1818
   3812.43  16.7258
   3856.99  17.2884
   3902.06  17.8705
   3947.66  18.4728
   3993.79  19.0958
   4040.46  19.7406
   4087.68  20.4081
   4135.45  21.0981
   4183.77  21.8125
   4232.67  22.5513
   4282.13  23.3157
   4332.17  24.1067
   4382.80  24.9257
   4434.01  25.7731
   4485.83  26.6497
   4538.25  27.5569
   4591.29  28.4949
   4644.94  29.4664
   4699.22  30.4722
   4754.14  31.5118
   4809.69  32.5881
   4865.90  33.7021
   4922.76  34.8553
   4980.29  36.0492
   5038.49  37.2841
   5097.37  38.5607
   5156.94  39.8838
   5217.20  41.2541
   5278.17  42.6696
   5339.85  44.1373
   5402.25  45.6562
   5465.38  47.2271
   5529.25  48.8534
   5593.87  50.5361
   5659.24  52.2758
   5725.37  54.0829
   5792.28  55.9457
   5859.97  57.8792
   5928.45  59.8796
   5997.73  61.9498
   6067.82  64.0927
   6138.73  66.3111
   6210.46  68.6077
   6283.04  70.9850
   6356.46  73.4460
   6430.75  75.9937
   6505.90  78.6306
   6581.92  81.3615
   6658.84  84.1885
   6736.66  87.1146
   6815.38  90.1434
   6895.02  93.2793
   6975.60  96.5264
   7057.12  99.8883
   7139.59  103.370
   7223.02  106.972
   7307.43  110.703
   7392.82  114.564
   7479.22  118.563
   7566.62  122.704
   7655.04  126.991
   7744.50  131.429
   7835.00  136.023
   7926.56  140.781
   8019.19  145.709
   8112.91  150.809
   8207.71  156.093
   8303.63  161.562
   8400.67  167.225
   8498.84  173.088
   8598.15  179.157
   8698.63  185.444
   8800.29  191.952
   8903.13  198.692
   9007.17  205.675
   9112.43  212.897
   9218.91  220.383
   9326.65  228.133
   9435.64  236.157
   9545.90  244.464
   9657.46  253.066
   9770.32  261.974
   9884.49  271.198
   10000.0  280.748
